# OpenSignals Text File Format. Version 1
# {"00:07:80:4C:2A:F7": {"position": 0, "device": "bioplux", "device name": "00:07:80:4C:2A:F7", 
"device connection": "BTH00:07:80:4C:2A:F7", "sampling rate": 1000, "resolution": [12, 12, 12, 12], 
"firmware version": 512, "comments": "", "keywords": "", "mode": 0, "sync interval": 2, "date": "2024-3-14", 
"time": "20:32:45.550", "channels": [1, 2, 3, 4], "sensor": ["ECG", "EGG", "EGG", "ECG"], "label": ["CH1", "CH2", "CH3", "CH4"], 
"column": ["nSeq", "DI", "CH1", "CH2", "CH3", "CH4"], "special": [{}, {}, {}, {}], "digital IO": [0, 1], "convertedValues": 0}}
# EndOfHeader
0	0	751	716	636	1994	
1	0	751	716	634	1995	
2	0	751	716	634	1992	
3	0	752	716	634	1992	
4	0	753	716	635	1992	
5	0	753	717	636	1992	
6	0	753	716	634	1996	
7	0	753	717	634	1991	
8	0	753	716	635	1991	
9	0	753	716	634	1991	
10	0	753	717	634	1994	
11	0	754	717	635	1995	
12	0	754	717	635	1995	
13	0	754	717	635	1995	
14	0	754	716	636	1991	
15	0	754	717	636	1991	
16	0	754	717	636	1990	
17	0	755	717	636	1987	
18	0	754	717	636	1987	
19	0	755	716	636	1987	
20	0	755	716	638	1988	
21	0	756	716	637	1991	
22	0	756	716	637	1988	
23	0	756	716	637	1988	
24	0	755	716	638	1986	
25	0	756	717	638	1986	
26	0	756	716	637	1988	
27	0	755	716	637	1991	
28	0	754	717	635	1993	
29	0	755	716	635	1989	
30	0	755	716	636	1987	
31	0	755	716	635	1985	
32	0	754	716	635	1984	
33	0	754	717	634	1987	
34	0	754	717	634	1987	
35	0	754	717	635	1986	
36	0	757	716	634	1982	
37	0	753	716	634	1981	
38	0	753	717	632	1986	
39	0	752	717	634	1984	
40	0	755	718	635	1987	
41	0	754	717	634	1983	
42	0	754	717	635	1985	
43	0	752	717	635	1982	
44	0	753	717	635	1980	
45	0	754	717	636	1982	
46	0	752	716	635	1983	
47	0	752	717	635	1982	
48	0	753	716	634	1981	
49	0	753	717	636	1978	
50	0	753	716	637	1978	
51	0	754	716	637	1985	
52	0	753	716	635	1979	
53	0	753	717	635	1979	
54	0	753	717	635	1979	
55	0	755	717	636	1980	
56	0	754	716	635	1980	
57	0	754	716	635	1979	
58	0	754	717	635	1977	
59	0	754	716	636	1976	
60	0	754	717	635	1975	
61	0	754	716	635	1975	
62	0	755	717	635	1975	
63	0	756	717	635	1975	
64	0	755	716	635	1975	
65	0	755	717	636	1972	
66	0	754	717	634	1972	
67	0	755	717	635	1973	
68	0	755	720	634	1970	
69	0	754	717	634	1971	
70	0	754	717	635	1974	
71	0	754	717	634	1972	
72	0	755	718	635	1972	
73	0	758	717	634	1968	
74	0	754	717	634	1968	
75	0	756	717	636	1969	
76	0	754	716	635	1966	
77	0	755	716	634	1964	
78	0	755	716	634	1967	
79	0	755	717	636	1967	
80	0	755	716	637	1966	
81	0	754	716	635	1966	
82	0	755	717	636	1964	
83	0	758	716	635	1960	
84	0	755	716	635	1959	
85	0	754	717	636	1959	
86	0	755	716	636	1961	
87	0	754	715	635	1958	
88	0	755	715	634	1961	
89	0	756	717	636	1959	
90	0	755	716	635	1954	
91	0	756	716	636	1956	
92	0	754	715	635	1953	
93	0	754	715	635	1954	
94	0	754	715	636	1953	
95	0	754	716	637	1952	
96	0	754	715	636	1953	
97	0	756	717	636	1955	
98	0	756	716	635	1951	
99	0	756	716	635	1948	
100	0	756	717	635	1949	
101	0	755	716	635	1946	
102	0	755	716	634	1945	
103	0	754	716	634	1945	
104	0	755	716	635	1945	
105	0	755	717	635	1946	
106	0	754	716	635	1939	
107	0	755	716	635	1937	
108	0	754	716	635	1935	
109	0	754	715	636	1934	
110	0	754	716	636	1931	
111	0	756	717	636	1933	
112	0	755	715	636	1930	
113	0	754	715	634	1931	
114	0	755	716	637	1930	
115	0	755	716	635	1925	
116	0	755	717	636	1930	
117	0	753	716	635	1924	
118	0	754	715	633	1925	
119	0	754	717	637	1920	
120	0	752	716	637	1921	
121	0	753	716	635	1922	
122	0	754	716	635	1924	
123	0	754	716	634	1919	
124	0	754	716	635	1919	
125	0	754	717	635	1921	
126	0	754	716	635	1919	
127	0	754	717	635	1921	
128	0	754	718	634	1919	
129	0	754	716	635	1918	
130	0	755	717	635	1919	
131	0	754	716	635	1918	
132	0	755	716	635	1916	
133	0	755	715	633	1917	
134	0	753	717	634	1916	
135	0	754	717	635	1915	
136	0	755	717	634	1915	
137	0	754	716	634	1916	
138	0	754	717	633	1915	
139	0	755	716	634	1915	
140	0	756	717	636	1915	
141	0	754	716	635	1913	
142	0	756	717	636	1914	
143	0	754	716	635	1911	
144	0	754	716	636	1914	
145	0	754	716	636	1912	
146	0	754	715	636	1912	
147	0	755	717	637	1914	
148	0	753	716	636	1912	
149	0	754	716	636	1914	
150	0	754	717	636	1916	
151	0	753	716	635	1916	
152	0	753	716	636	1915	
153	0	754	716	635	1916	
154	0	753	717	635	1915	
155	0	755	718	636	1917	
156	0	754	717	635	1918	
157	0	755	717	636	1915	
158	0	756	718	635	1916	
159	0	756	717	637	1916	
160	0	756	718	637	1919	
161	0	754	717	636	1920	
162	0	755	718	637	1922	
163	0	754	717	636	1921	
164	0	753	717	636	1921	
165	0	754	717	637	1921	
166	0	755	718	636	1923	
167	0	755	717	635	1923	
168	0	754	718	634	1925	
169	0	752	717	635	1927	
170	0	753	717	637	1929	
171	0	753	717	636	1929	
172	0	753	717	635	1929	
173	0	754	718	635	1930	
174	0	753	717	635	1931	
175	0	754	717	635	1932	
176	0	755	717	635	1936	
177	0	754	717	634	1937	
178	0	754	718	634	1942	
179	0	753	718	635	1942	
180	0	754	717	635	1947	
181	0	755	717	634	1945	
182	0	755	717	635	1947	
183	0	756	718	634	1949	
184	0	757	717	635	1950	
185	0	757	718	635	1956	
186	0	754	717	635	1955	
187	0	755	716	634	1957	
188	0	755	717	633	1962	
189	0	755	718	635	1963	
190	0	754	717	635	1966	
191	0	755	718	635	1971	
192	0	753	717	635	1971	
193	0	753	716	633	1976	
194	0	754	718	635	1979	
195	0	754	717	635	1978	
196	0	754	717	635	1986	
197	0	755	718	636	1992	
198	0	755	718	634	1992	
199	0	756	717	634	1995	
200	0	755	718	636	1998	
201	0	755	717	635	2002	
202	0	755	717	635	2005	
203	0	755	717	635	2008	
204	0	754	717	635	2011	
205	0	755	717	636	2015	
206	0	755	717	636	2015	
207	0	756	718	637	2023	
208	0	753	717	636	2024	
209	0	754	717	635	2027	
210	0	754	717	636	2031	
211	0	754	716	636	2034	
212	0	755	717	636	2038	
213	0	754	716	634	2038	
214	0	754	717	635	2042	
215	0	754	717	634	2045	
216	0	754	717	635	2052	
217	0	754	716	634	2053	
218	0	754	716	635	2056	
219	0	755	716	634	2061	
220	0	755	716	635	2067	
221	0	754	716	635	2067	
222	0	754	717	636	2071	
223	0	754	718	635	2070	
224	0	754	716	635	2073	
225	0	754	717	635	2079	
226	0	753	716	634	2079	
227	0	754	717	635	2085	
228	0	753	716	635	2084	
229	0	752	716	635	2087	
230	0	752	716	636	2090	
231	0	753	716	634	2093	
232	0	754	717	636	2097	
233	0	752	717	634	2098	
234	0	753	716	635	2099	
235	0	753	716	635	2103	
236	0	755	717	636	2109	
237	0	754	716	634	2108	
238	0	754	715	632	2113	
239	0	755	717	635	2114	
240	0	754	716	635	2111	
241	0	755	717	636	2117	
242	0	754	716	635	2114	
243	0	754	716	634	2120	
244	0	755	718	636	2121	
245	0	754	717	637	2118	
246	0	754	716	635	2116	
247	0	754	716	635	2115	
248	0	755	716	635	2117	
249	0	756	717	634	2119	
250	0	756	717	636	2122	
251	0	755	716	634	2122	
252	0	755	716	635	2122	
253	0	754	716	635	2123	
254	0	756	715	636	2124	
255	0	755	716	637	2126	
256	0	754	715	636	2128	
257	0	754	717	637	2129	
258	0	756	715	636	2126	
259	0	754	716	636	2126	
260	0	754	717	636	2131	
261	0	753	716	634	2128	
262	0	755	717	636	2130	
263	0	757	717	634	2126	
264	0	754	717	633	2126	
265	0	754	717	634	2125	
266	0	754	716	633	2126	
267	0	755	716	633	2127	
268	0	755	716	633	2127	
269	0	756	717	634	2127	
270	0	755	717	635	2131	
271	0	755	716	634	2129	
272	0	754	716	635	2127	
273	0	754	716	635	2127	
274	0	755	716	636	2127	
275	0	755	718	637	2130	
276	0	754	717	636	2126	
277	0	755	718	637	2130	
278	0	755	717	636	2126	
279	0	753	716	637	2122	
280	0	754	716	637	2121	
281	0	754	716	635	2122	
282	0	756	717	637	2124	
283	0	755	717	635	2119	
284	0	754	716	635	2118	
285	0	754	717	635	2119	
286	0	756	717	635	2120	
287	0	756	717	633	2117	
288	0	755	717	633	2119	
289	0	756	718	633	2115	
290	0	755	718	632	2115	
291	0	756	718	633	2116	
292	0	756	717	633	2114	
293	0	756	716	632	2115	
294	0	756	718	633	2114	
295	0	754	717	635	2110	
296	0	755	717	634	2110	
297	0	755	717	635	2111	
298	0	754	716	636	2112	
299	0	755	717	637	2112	
300	0	753	716	636	2109	
301	0	754	717	637	2110	
302	0	753	716	636	2106	
303	0	753	715	637	2104	
304	0	754	715	636	2106	
305	0	754	717	637	2110	
306	0	754	716	635	2104	
307	0	754	717	636	2106	
308	0	755	716	635	2102	
309	0	755	716	635	2103	
310	0	755	718	635	2104	
311	0	755	716	633	2100	
312	0	756	718	634	2101	
313	0	757	719	633	2099	
314	0	756	716	633	2098	
315	0	755	717	633	2099	
316	0	757	718	634	2101	
317	0	757	717	634	2097	
318	0	756	717	634	2100	
319	0	757	717	635	2099	
320	0	755	717	636	2095	
321	0	756	717	636	2098	
322	0	755	716	636	2096	
323	0	754	716	636	2095	
324	0	755	715	636	2094	
325	0	755	716	636	2097	
326	0	753	715	635	2093	
327	0	753	716	635	2091	
328	0	754	716	635	2094	
329	0	754	717	635	2094	
330	0	754	717	635	2090	
331	0	754	717	634	2089	
332	0	756	717	635	2092	
333	0	757	716	634	2090	
334	0	755	716	634	2090	
335	0	755	717	635	2091	
336	0	755	716	633	2089	
337	0	755	717	635	2091	
338	0	756	717	634	2089	
339	0	756	717	635	2089	
340	0	755	717	635	2089	
341	0	755	716	635	2087	
342	0	756	717	636	2088	
343	0	755	717	635	2087	
344	0	755	716	635	2088	
345	0	754	717	635	2088	
346	0	754	716	634	2087	
347	0	755	717	636	2088	
348	0	755	717	634	2085	
349	0	755	716	635	2085	
350	0	755	717	636	2087	
351	0	754	716	633	2084	
352	0	755	718	635	2087	
353	0	755	717	634	2085	
354	0	755	716	634	2084	
355	0	755	717	635	2085	
356	0	754	717	634	2085	
357	0	755	717	634	2085	
358	0	755	717	635	2087	
359	0	756	718	635	2086	
360	0	756	717	634	2085	
361	0	755	716	634	2085	
362	0	755	716	634	2087	
363	0	755	716	635	2089	
364	0	755	717	636	2089	
365	0	755	717	635	2087	
366	0	756	717	636	2086	
367	0	754	716	636	2085	
368	0	754	716	636	2088	
369	0	754	716	637	2089	
370	0	752	716	636	2087	
371	0	754	717	637	2088	
372	0	753	716	636	2084	
373	0	753	716	636	2084	
374	0	754	715	636	2084	
375	0	755	717	636	2087	
376	0	755	716	635	2086	
377	0	756	717	636	2086	
378	0	755	716	635	2083	
379	0	756	716	635	2086	
380	0	757	717	636	2089	
381	0	756	716	635	2087	
382	0	755	716	636	2084	
383	0	756	717	636	2084	
384	0	756	716	636	2085	
385	0	756	717	637	2088	
386	0	754	716	635	2086	
387	0	755	716	636	2086	
388	0	755	716	636	2088	
389	0	755	716	636	2088	
390	0	755	717	637	2090	
391	0	754	716	636	2088	
392	0	755	717	636	2090	
393	0	755	715	636	2087	
394	0	754	715	636	2088	
395	0	755	716	637	2091	
396	0	754	716	635	2090	
397	0	754	717	637	2092	
398	0	757	715	636	2089	
399	0	753	715	636	2091	
400	0	754	716	636	2092	
401	0	755	717	636	2094	
402	0	754	716	636	2089	
403	0	754	716	636	2091	
404	0	755	717	636	2092	
405	0	754	716	636	2089	
406	0	756	715	634	2091	
407	0	754	716	636	2093	
408	0	757	715	635	2089	
409	0	755	716	635	2087	
410	0	754	716	635	2088	
411	0	754	716	634	2087	
412	0	755	717	636	2089	
413	0	757	715	634	2088	
414	0	754	716	634	2087	
415	0	755	716	634	2087	
416	0	754	715	634	2090	
417	0	753	717	635	2092	
418	0	757	715	633	2090	
419	0	755	716	634	2088	
420	0	754	716	634	2091	
421	0	754	717	635	2094	
422	0	754	716	634	2091	
423	0	753	716	635	2095	
424	0	754	717	636	2095	
425	0	753	717	635	2092	
426	0	753	716	634	2089	
427	0	753	716	634	2088	
428	0	755	716	635	2089	
429	0	755	716	634	2089	
430	0	754	716	634	2090	
431	0	754	716	633	2090	
432	0	754	717	635	2092	
433	0	755	716	635	2090	
434	0	754	716	635	2089	
435	0	755	716	635	2090	
436	0	757	716	636	2094	
437	0	756	715	636	2089	
438	0	756	716	636	2092	
439	0	757	717	636	2091	
440	0	755	716	636	2092	
441	0	754	716	636	2092	
442	0	753	716	638	2094	
443	0	757	715	637	2088	
444	0	754	716	637	2088	
445	0	753	716	637	2089	
446	0	754	716	637	2090	
447	0	753	715	636	2088	
448	0	754	715	636	2087	
449	0	755	715	635	2089	
450	0	754	717	635	2091	
451	0	753	716	633	2088	
452	0	753	715	634	2087	
453	0	754	716	634	2087	
454	0	754	715	634	2087	
455	0	756	716	635	2089	
456	0	755	715	634	2087	
457	0	754	715	635	2088	
458	0	755	716	635	2089	
459	0	756	715	635	2089	
460	0	755	716	637	2089	
461	0	753	716	636	2088	
462	0	754	716	636	2087	
463	0	754	716	637	2091	
464	0	754	716	638	2092	
465	0	753	716	637	2089	
466	0	753	715	636	2086	
467	0	753	715	636	2085	
468	0	754	716	636	2086	
469	0	755	716	636	2085	
470	0	754	716	635	2087	
471	0	755	717	635	2089	
472	0	754	715	635	2087	
473	0	754	716	634	2087	
474	0	754	716	635	2087	
475	0	755	717	636	2089	
476	0	754	716	635	2090	
477	0	755	716	635	2087	
478	0	754	717	635	2087	
479	0	755	717	636	2089	
480	0	755	717	636	2088	
481	0	755	718	636	2092	
482	0	753	716	635	2088	
483	0	754	716	635	2088	
484	0	753	716	635	2088	
485	0	754	717	636	2091	
486	0	753	716	635	2087	
487	0	753	716	635	2087	
488	0	754	717	635	2088	
489	0	755	717	635	2089	
490	0	755	716	635	2087	
491	0	756	717	636	2088	
492	0	754	716	635	2085	
493	0	755	717	635	2083	
494	0	756	717	635	2084	
495	0	755	717	636	2086	
496	0	757	717	636	2088	
497	0	754	717	635	2086	
498	0	755	717	635	2088	
499	0	756	718	635	2090	
500	0	756	717	635	2088	
501	0	756	717	636	2088	
502	0	755	716	635	2085	
503	0	755	717	635	2087	
504	0	755	717	635	2088	
505	0	754	717	635	2089	
506	0	754	717	636	2090	
507	0	754	716	635	2086	
508	0	754	716	635	2086	
509	0	755	717	636	2087	
510	0	754	717	636	2086	
511	0	755	717	636	2087	
512	0	754	716	635	2084	
513	0	755	716	635	2084	
514	0	756	717	636	2086	
515	0	755	717	636	2085	
516	0	755	716	635	2084	
517	0	753	717	636	2087	
518	0	758	716	635	2085	
519	0	757	716	635	2086	
520	0	755	716	636	2086	
521	0	755	717	636	2086	
522	0	755	717	635	2082	
523	0	754	717	635	2084	
524	0	755	717	636	2084	
525	0	755	717	635	2084	
526	0	756	716	635	2082	
527	0	755	716	635	2080	
528	0	754	716	635	2081	
529	0	755	717	635	2083	
530	0	754	717	634	2081	
531	0	754	717	634	2082	
532	0	753	716	633	2081	
533	0	754	717	633	2081	
534	0	754	716	634	2081	
535	0	754	717	634	2082	
536	0	754	716	633	2083	
537	0	754	716	633	2082	
538	0	755	716	634	2080	
539	0	756	716	635	2083	
540	0	754	716	635	2081	
541	0	754	715	635	2080	
542	0	754	716	635	2080	
543	0	754	716	635	2082	
544	0	755	717	636	2084	
545	0	755	715	636	2080	
546	0	754	716	635	2078	
547	0	754	717	636	2077	
548	0	755	716	636	2078	
549	0	756	716	637	2080	
550	0	754	717	636	2078	
551	0	754	717	636	2078	
552	0	753	716	635	2074	
553	0	753	716	635	2075	
554	0	753	716	635	2078	
555	0	752	717	635	2077	
556	0	753	716	634	2078	
557	0	753	717	633	2076	
558	0	754	716	634	2077	
559	0	756	717	635	2081	
560	0	755	716	634	2079	
561	0	754	716	634	2078	
562	0	754	717	635	2075	
563	0	755	716	635	2075	
564	0	756	717	636	2077	
565	0	755	717	636	2074	
566	0	757	717	636	2075	
567	0	755	717	635	2072	
568	0	755	717	635	2073	
569	0	756	717	635	2074	
570	0	755	716	636	2071	
571	0	755	717	636	2072	
572	0	755	716	635	2069	
573	0	755	717	635	2070	
574	0	755	715	636	2072	
575	0	754	716	636	2071	
576	0	755	717	636	2075	
577	0	753	716	635	2072	
578	0	753	717	635	2073	
579	0	754	716	635	2072	
580	0	756	717	635	2075	
581	0	754	716	634	2072	
582	0	754	717	634	2071	
583	0	755	717	634	2073	
584	0	755	717	634	2073	
585	0	756	717	634	2075	
586	0	756	716	634	2070	
587	0	754	717	635	2072	
588	0	757	716	635	2069	
589	0	756	717	635	2068	
590	0	756	717	637	2072	
591	0	755	716	635	2070	
592	0	754	717	635	2067	
593	0	754	717	636	2067	
594	0	755	717	636	2067	
595	0	756	717	638	2070	
596	0	754	717	637	2070	
597	0	752	718	638	2071	
598	0	755	717	639	2068	
599	0	754	715	637	2067	
600	0	754	716	637	2069	
601	0	756	717	637	2072	
602	0	753	717	636	2069	
603	0	754	716	636	2068	
604	0	754	716	636	2070	
605	0	754	716	635	2068	
606	0	753	716	635	2066	
607	0	754	717	636	2068	
608	0	755	716	639	2065	
609	0	754	714	635	2063	
610	0	754	715	635	2064	
611	0	755	715	635	2064	
612	0	753	716	636	2065	
613	0	757	717	639	2062	
614	0	756	715	636	2063	
615	0	754	716	635	2062	
616	0	755	717	636	2064	
617	0	754	716	635	2065	
618	0	754	716	636	2067	
619	0	755	717	636	2069	
620	0	754	715	635	2066	
621	0	754	715	635	2065	
622	0	752	717	635	2067	
623	0	755	715	635	2064	
624	0	756	715	634	2063	
625	0	754	715	635	2063	
626	0	755	716	635	2061	
627	0	754	716	635	2063	
628	0	755	715	635	2059	
629	0	755	714	635	2061	
630	0	754	715	635	2060	
631	0	755	715	636	2061	
632	0	755	715	635	2061	
633	0	756	715	636	2062	
634	0	756	715	635	2063	
635	0	754	714	636	2064	
636	0	754	715	637	2064	
637	0	753	716	637	2068	
638	0	755	715	636	2065	
639	0	754	715	635	2065	
640	0	753	715	636	2062	
641	0	753	715	636	2062	
642	0	752	716	636	2064	
643	0	755	715	635	2061	
644	0	755	715	635	2062	
645	0	753	715	635	2063	
646	0	754	716	635	2059	
647	0	755	716	636	2060	
648	0	755	715	636	2056	
649	0	754	716	635	2056	
650	0	755	716	636	2058	
651	0	754	716	634	2056	
652	0	754	716	634	2056	
653	0	754	716	634	2057	
654	0	754	717	634	2059	
655	0	753	716	633	2058	
656	0	754	717	633	2060	
657	0	754	717	633	2061	
658	0	755	717	633	2059	
659	0	754	718	633	2058	
660	0	755	717	633	2059	
661	0	754	716	633	2058	
662	0	755	716	634	2059	
663	0	755	716	634	2060	
664	0	756	717	635	2060	
665	0	754	716	635	2057	
666	0	754	715	636	2056	
667	0	754	716	637	2057	
668	0	755	716	635	2056	
669	0	754	717	636	2055	
670	0	755	717	637	2058	
671	0	753	716	636	2054	
672	0	754	716	637	2058	
673	0	755	719	637	2056	
674	0	755	716	637	2055	
675	0	756	717	637	2059	
676	0	754	716	636	2057	
677	0	754	717	636	2059	
678	0	755	720	635	2058	
679	0	755	718	635	2059	
680	0	756	717	636	2062	
681	0	756	717	636	2060	
682	0	755	716	635	2058	
683	0	754	716	635	2057	
684	0	754	717	635	2056	
685	0	756	717	635	2059	
686	0	755	717	635	2056	
687	0	754	716	634	2052	
688	0	755	716	635	2053	
689	0	755	717	636	2056	
690	0	753	716	635	2055	
691	0	754	717	636	2056	
692	0	752	717	635	2054	
693	0	753	716	635	2054	
694	0	754	717	636	2055	
695	0	753	715	636	2053	
696	0	755	717	637	2058	
697	0	753	717	636	2057	
698	0	753	716	635	2055	
699	0	755	717	637	2056	
700	0	754	716	636	2054	
701	0	755	718	636	2056	
702	0	754	716	635	2054	
703	0	754	716	636	2054	
704	0	755	716	635	2055	
705	0	754	715	635	2054	
706	0	756	717	636	2053	
707	0	755	715	635	2049	
708	0	755	716	634	2050	
709	0	755	716	636	2053	
710	0	753	715	635	2051	
711	0	754	716	635	2052	
712	0	753	716	635	2052	
713	0	753	716	635	2053	
714	0	753	715	633	2050	
715	0	752	716	634	2052	
716	0	753	716	634	2050	
717	0	753	716	633	2051	
718	0	753	717	634	2050	
719	0	754	715	634	2052	
720	0	752	715	635	2052	
721	0	754	716	635	2051	
722	0	754	716	635	2049	
723	0	755	715	635	2049	
724	0	754	715	635	2050	
725	0	754	715	635	2051	
726	0	754	715	635	2050	
727	0	754	716	635	2048	
728	0	754	716	635	2047	
729	0	755	716	634	2048	
730	0	754	715	635	2051	
731	0	755	715	635	2051	
732	0	755	716	635	2051	
733	0	755	716	635	2053	
734	0	755	715	634	2053	
735	0	755	716	634	2053	
736	0	755	716	635	2052	
737	0	755	716	635	2053	
738	0	756	716	635	2052	
739	0	757	717	635	2049	
740	0	755	716	635	2051	
741	0	756	716	636	2050	
742	0	755	716	635	2050	
743	0	755	716	635	2051	
744	0	755	715	635	2051	
745	0	754	716	635	2051	
746	0	754	716	635	2047	
747	0	753	716	635	2047	
748	0	753	716	635	2046	
749	0	754	715	634	2047	
750	0	754	715	635	2048	
751	0	754	717	635	2047	
752	0	754	716	635	2047	
753	0	754	716	635	2045	
754	0	755	717	636	2045	
755	0	754	716	636	2045	
756	0	755	716	635	2046	
757	0	755	716	636	2045	
758	0	755	716	635	2046	
759	0	755	716	635	2046	
760	0	753	716	636	2048	
761	0	754	716	636	2047	
762	0	755	716	636	2048	
763	0	756	715	635	2046	
764	0	755	717	636	2046	
765	0	754	717	636	2047	
766	0	754	716	636	2045	
767	0	754	717	636	2047	
768	0	755	717	635	2046	
769	0	755	716	635	2046	
770	0	752	716	634	2044	
771	0	753	716	634	2043	
772	0	753	717	635	2045	
773	0	754	716	635	2045	
774	0	754	717	636	2045	
775	0	753	715	636	2043	
776	0	753	716	637	2043	
777	0	753	717	637	2048	
778	0	754	716	637	2048	
779	0	754	716	637	2048	
780	0	752	716	637	2044	
781	0	754	716	636	2043	
782	0	753	717	637	2047	
783	0	755	717	636	2048	
784	0	755	717	637	2050	
785	0	753	716	636	2048	
786	0	755	716	635	2044	
787	0	756	718	636	2045	
788	0	755	717	636	2044	
789	0	756	716	635	2045	
790	0	754	715	635	2043	
791	0	756	717	635	2046	
792	0	754	716	634	2043	
793	0	754	716	634	2044	
794	0	754	717	635	2046	
795	0	752	716	635	2045	
796	0	754	716	636	2048	
797	0	754	716	635	2043	
798	0	753	716	634	2038	
799	0	753	717	634	2037	
800	0	752	716	634	2031	
801	0	754	717	634	2030	
802	0	754	717	634	2027	
803	0	754	717	634	2024	
804	0	754	717	633	2019	
805	0	755	717	633	2021	
806	0	755	717	634	2019	
807	0	755	719	633	2015	
808	0	754	716	633	2015	
809	0	755	717	634	2015	
810	0	753	716	634	2015	
811	0	753	716	635	2013	
812	0	754	715	635	2012	
813	0	754	714	636	2011	
814	0	754	716	637	2012	
815	0	752	715	637	2012	
816	0	753	715	636	2011	
817	0	754	715	636	2010	
818	0	754	715	637	2010	
819	0	754	716	636	2010	
820	0	752	716	636	2009	
821	0	754	717	636	2007	
822	0	755	717	636	2006	
823	0	754	717	636	2005	
824	0	754	716	635	2003	
825	0	753	716	635	2006	
826	0	755	716	636	2003	
827	0	755	716	636	2001	
828	0	754	716	636	1998	
829	0	754	716	636	1996	
830	0	752	716	636	1996	
831	0	753	716	635	1996	
832	0	754	715	635	1997	
833	0	754	716	637	1998	
834	0	754	716	636	2001	
835	0	755	716	636	2004	
836	0	754	715	636	2008	
837	0	753	716	637	2011	
838	0	753	716	637	2009	
839	0	754	715	636	2010	
840	0	753	716	635	2011	
841	0	755	717	634	2013	
842	0	753	716	633	2010	
843	0	755	717	634	2012	
844	0	755	717	633	2013	
845	0	754	716	633	2012	
846	0	753	716	632	2010	
847	0	754	716	632	2014	
848	0	755	717	631	2013	
849	0	755	718	632	2013	
850	0	756	718	632	2015	
851	0	755	717	632	2012	
852	0	756	716	633	2017	
853	0	756	717	634	2017	
854	0	756	717	635	2023	
855	0	757	717	635	2026	
856	0	756	717	636	2027	
857	0	755	716	636	2028	
858	0	755	716	638	2030	
859	0	755	717	637	2031	
860	0	755	717	638	2033	
861	0	755	717	638	2033	
862	0	753	716	637	2029	
863	0	753	716	636	2031	
864	0	754	717	636	2038	
865	0	754	717	636	2038	
866	0	753	716	635	2039	
867	0	753	715	635	2044	
868	0	753	717	633	2044	
869	0	753	717	634	2047	
870	0	754	717	634	2052	
871	0	753	716	633	2051	
872	0	754	715	634	2056	
873	0	755	717	634	2055	
874	0	754	716	633	2057	
875	0	755	717	636	2061	
876	0	754	716	635	2063	
877	0	755	714	636	2065	
878	0	755	716	639	2064	
879	0	754	716	636	2067	
880	0	755	717	637	2072	
881	0	754	716	636	2074	
882	0	754	715	637	2078	
883	0	754	719	637	2076	
884	0	754	716	635	2075	
885	0	753	717	636	2078	
886	0	752	716	635	2073	
887	0	753	714	636	2076	
888	0	755	717	636	2071	
889	0	755	717	636	2073	
890	0	753	716	636	2073	
891	0	754	717	636	2075	
892	0	754	716	636	2072	
893	0	755	716	636	2073	
894	0	755	717	636	2075	
895	0	754	717	636	2075	
896	0	755	718	637	2077	
897	0	756	716	636	2075	
898	0	754	716	636	2077	
899	0	754	717	637	2080	
900	0	754	716	636	2078	
901	0	753	716	636	2073	
902	0	753	715	636	2075	
903	0	753	717	636	2074	
904	0	754	717	636	2074	
905	0	754	716	635	2074	
906	0	754	716	636	2073	
907	0	754	717	636	2073	
908	0	753	715	635	2069	
909	0	754	716	635	2069	
910	0	754	717	635	2072	
911	0	754	717	636	2072	
912	0	754	716	635	2070	
913	0	754	716	637	2070	
914	0	754	716	636	2070	
915	0	754	716	636	2070	
916	0	754	717	637	2075	
917	0	754	717	637	2075	
918	0	755	715	637	2070	
919	0	755	716	635	2068	
920	0	756	716	637	2068	
921	0	754	715	636	2065	
922	0	754	715	636	2070	
923	0	755	717	635	2067	
924	0	754	717	635	2069	
925	0	753	716	635	2068	
926	0	753	716	634	2067	
927	0	753	715	635	2068	
928	0	754	719	633	2065	
929	0	753	718	634	2062	
930	0	753	717	633	2056	
931	0	755	717	634	2051	
932	0	754	716	634	2039	
933	0	754	716	634	2029	
934	0	755	717	635	2021	
935	0	753	716	635	2009	
936	0	754	716	635	1999	
937	0	754	715	636	1993	
938	0	755	717	636	1982	
939	0	754	718	636	1978	
940	0	754	716	636	1968	
941	0	755	717	637	1956	
942	0	757	716	636	1932	
943	0	754	716	636	1911	
944	0	755	717	637	1890	
945	0	754	716	636	1864	
946	0	753	716	635	1839	
947	0	754	715	636	1823	
948	0	754	719	635	1806	
949	0	754	717	635	1798	
950	0	754	716	635	1795	
951	0	755	718	635	1806	
952	0	753	716	633	1823	
953	0	754	717	633	1847	
954	0	754	717	633	1874	
955	0	756	717	634	1902	
956	0	754	717	633	1927	
957	0	754	715	634	1952	
958	0	754	717	635	1966	
959	0	754	717	634	1968	
960	0	753	716	635	1971	
961	0	754	717	636	1972	
962	0	754	716	635	1970	
963	0	754	717	635	1977	
964	0	755	717	636	1988	
965	0	755	716	635	1999	
966	0	755	718	636	2013	
967	0	755	718	636	2040	
968	0	754	716	635	2072	
969	0	754	716	635	2117	
970	0	755	717	636	2169	
971	0	755	717	636	2228	
972	0	754	716	634	2293	
973	0	755	716	634	2365	
974	0	756	717	635	2431	
975	0	756	717	635	2479	
976	0	754	716	634	2515	
977	0	755	715	635	2529	
978	0	755	717	635	2528	
979	0	754	716	634	2514	
980	0	754	717	635	2501	
981	0	753	716	635	2478	
982	0	753	715	635	2456	
983	0	754	716	636	2430	
984	0	753	715	635	2399	
985	0	753	716	636	2373	
986	0	754	715	636	2344	
987	0	754	716	636	2316	
988	0	754	716	636	2290	
989	0	754	716	635	2267	
990	0	755	717	636	2245	
991	0	755	716	636	2222	
992	0	754	716	635	2194	
993	0	754	716	635	2169	
994	0	755	717	636	2146	
995	0	754	716	635	2123	
996	0	756	716	636	2104	
997	0	755	716	634	2084	
998	0	755	716	634	2070	
999	0	755	717	635	2058	
1000	0	754	715	635	2046	
1001	0	755	717	635	2037	
1002	0	754	716	635	2028	
1003	0	754	715	635	2024	
1004	0	755	716	635	2026	
1005	0	754	716	635	2023	
1006	0	754	715	635	2017	
1007	0	754	715	636	2015	
1008	0	754	715	636	2016	
1009	0	754	716	637	2018	
1010	0	754	715	637	2016	
1011	0	753	715	636	2013	
1012	0	754	716	636	2013	
1013	0	754	716	636	2015	
1014	0	754	717	637	2017	
1015	0	754	716	636	2015	
1016	0	754	715	636	2016	
1017	0	754	716	635	2014	
1018	0	755	716	636	2009	
1019	0	755	716	636	2010	
1020	0	754	716	635	2007	
1021	0	755	717	635	2011	
1022	0	755	716	635	2008	
1023	0	754	717	634	2008	
1024	0	755	717	635	2011	
1025	0	754	716	635	2007	
1026	0	755	717	635	2007	
1027	0	755	716	635	2004	
1028	0	755	716	635	2004	
1029	0	756	718	636	2005	
1030	0	755	717	636	2005	
1031	0	754	716	635	2005	
1032	0	754	716	635	2006	
1033	0	754	716	635	2005	
1034	0	755	717	636	2006	
1035	0	753	717	635	2003	
1036	0	755	716	635	2003	
1037	0	755	716	635	2002	
1038	0	754	717	635	2004	
1039	0	755	717	635	2004	
1040	0	755	716	635	2004	
1041	0	754	716	634	2004	
1042	0	754	716	634	2001	
1043	0	754	717	634	2001	
1044	0	754	717	633	2001	
1045	0	753	716	633	2006	
1046	0	753	716	633	2000	
1047	0	754	717	633	2001	
1048	0	754	718	633	1999	
1049	0	754	718	633	2000	
1050	0	754	717	634	2001	
1051	0	754	717	634	1999	
1052	0	754	717	634	1998	
1053	0	754	718	634	1998	
1054	0	755	717	635	1997	
1055	0	755	717	635	1998	
1056	0	755	716	635	2001	
1057	0	756	716	635	2000	
1058	0	755	717	636	1998	
1059	0	756	717	635	1995	
1060	0	756	717	637	1997	
1061	0	755	717	636	1996	
1062	0	754	716	637	2000	
1063	0	755	717	636	2000	
1064	0	755	717	637	1999	
1065	0	754	716	637	1999	
1066	0	755	716	637	1995	
1067	0	754	716	637	1995	
1068	0	753	717	637	1995	
1069	0	753	718	637	1993	
1070	0	753	716	637	1994	
1071	0	753	716	636	1992	
1072	0	754	716	636	1992	
1073	0	753	717	636	1992	
1074	0	754	718	636	1992	
1075	0	755	716	635	1994	
1076	0	754	716	635	1993	
1077	0	754	716	635	1993	
1078	0	753	717	635	1993	
1079	0	755	717	635	1997	
1080	0	754	715	635	1998	
1081	0	754	716	635	1998	
1082	0	755	716	636	1999	
1083	0	755	715	636	1997	
1084	0	755	716	636	1995	
1085	0	755	715	637	1995	
1086	0	755	715	637	1991	
1087	0	754	716	636	1990	
1088	0	752	716	636	1989	
1089	0	753	716	636	1987	
1090	0	752	715	636	1989	
1091	0	752	716	636	1988	
1092	0	752	716	637	1991	
1093	0	754	716	636	1988	
1094	0	753	717	635	1987	
1095	0	754	715	635	1988	
1096	0	755	717	635	1992	
1097	0	754	716	634	1993	
1098	0	755	715	634	1994	
1099	0	756	717	635	1994	
1100	0	754	715	635	1990	
1101	0	755	716	636	1992	
1102	0	755	715	635	1989	
1103	0	755	716	635	1991	
1104	0	755	717	636	1992	
1105	0	754	715	636	1991	
1106	0	755	716	637	1988	
1107	0	754	716	636	1987	
1108	0	754	716	637	1990	
1109	0	754	717	637	1992	
1110	0	753	715	637	1989	
1111	0	754	716	636	1987	
1112	0	753	716	637	1988	
1113	0	755	717	637	1986	
1114	0	755	716	635	1985	
1115	0	755	717	635	1985	
1116	0	754	716	634	1987	
1117	0	755	716	634	1986	
1118	0	755	717	634	1986	
1119	0	754	718	633	1984	
1120	0	755	716	633	1987	
1121	0	754	716	633	1985	
1122	0	754	716	633	1985	
1123	0	754	716	634	1985	
1124	0	756	717	635	1983	
1125	0	754	715	636	1982	
1126	0	755	717	636	1983	
1127	0	755	715	636	1980	
1128	0	754	716	636	1980	
1129	0	754	717	636	1980	
1130	0	754	715	637	1981	
1131	0	754	716	637	1980	
1132	0	753	716	637	1982	
1133	0	755	717	637	1983	
1134	0	754	716	637	1979	
1135	0	755	716	637	1979	
1136	0	754	715	636	1979	
1137	0	754	715	636	1982	
1138	0	754	716	635	1982	
1139	0	754	716	636	1982	
1140	0	755	716	637	1984	
1141	0	755	716	636	1978	
1142	0	755	716	637	1981	
1143	0	755	717	636	1980	
1144	0	755	716	636	1981	
1145	0	754	715	636	1982	
1146	0	754	717	635	1976	
1147	0	754	716	636	1976	
1148	0	754	716	636	1976	
1149	0	755	717	636	1978	
1150	0	753	716	636	1975	
1151	0	755	717	635	1976	
1152	0	755	716	635	1972	
1153	0	754	716	635	1972	
1154	0	755	717	635	1974	
1155	0	754	715	634	1975	
1156	0	755	717	635	1980	
1157	0	755	716	635	1976	
1158	0	755	716	635	1974	
1159	0	755	717	636	1975	
1160	0	755	715	636	1973	
1161	0	755	716	635	1973	
1162	0	755	716	636	1974	
1163	0	756	716	636	1974	
1164	0	755	717	637	1975	
1165	0	755	716	636	1970	
1166	0	756	717	637	1971	
1167	0	754	717	637	1967	
1168	0	754	716	637	1965	
1169	0	755	717	637	1967	
1170	0	755	715	636	1964	
1171	0	755	717	637	1964	
1172	0	753	716	636	1960	
1173	0	754	715	636	1961	
1174	0	754	716	636	1963	
1175	0	754	715	634	1960	
1176	0	755	717	635	1964	
1177	0	757	715	634	1962	
1178	0	754	716	635	1967	
1179	0	755	716	636	1969	
1180	0	754	715	634	1968	
1181	0	754	716	635	1968	
1182	0	754	715	635	1963	
1183	0	753	716	635	1962	
1184	0	754	716	636	1961	
1185	0	753	715	634	1964	
1186	0	752	716	634	1959	
1187	0	752	716	635	1958	
1188	0	753	716	635	1954	
1189	0	754	717	633	1954	
1190	0	754	716	633	1952	
1191	0	754	717	634	1952	
1192	0	754	716	633	1951	
1193	0	754	716	633	1951	
1194	0	756	717	632	1951	
1195	0	756	715	632	1950	
1196	0	755	716	633	1949	
1197	0	755	715	633	1949	
1198	0	755	716	633	1950	
1199	0	755	716	633	1949	
1200	0	754	715	633	1949	
1201	0	754	716	633	1947	
1202	0	755	715	634	1942	
1203	0	754	716	634	1942	
1204	0	754	715	635	1941	
1205	0	753	715	635	1944	
1206	0	754	716	635	1936	
1207	0	753	715	635	1936	
1208	0	754	715	635	1936	
1209	0	754	715	636	1937	
1210	0	754	715	636	1937	
1211	0	754	715	636	1935	
1212	0	755	716	636	1935	
1213	0	755	716	635	1934	
1214	0	755	715	635	1934	
1215	0	754	715	634	1934	
1216	0	754	715	635	1936	
1217	0	754	715	635	1935	
1218	0	753	716	635	1933	
1219	0	754	716	636	1930	
1220	0	755	717	635	1930	
1221	0	753	716	634	1927	
1222	0	754	715	635	1927	
1223	0	754	715	635	1928	
1224	0	755	716	636	1928	
1225	0	754	715	635	1926	
1226	0	756	716	636	1923	
1227	0	755	714	636	1920	
1228	0	754	715	636	1919	
1229	0	754	716	636	1919	
1230	0	753	715	635	1916	
1231	0	753	716	635	1914	
1232	0	753	716	636	1913	
1233	0	753	716	636	1913	
1234	0	754	716	636	1913	
1235	0	755	716	637	1914	
1236	0	753	716	636	1912	
1237	0	753	716	636	1912	
1238	0	754	716	636	1912	
1239	0	755	716	636	1915	
1240	0	754	715	636	1918	
1241	0	754	716	636	1917	
1242	0	754	716	636	1917	
1243	0	755	718	636	1915	
1244	0	756	717	637	1916	
1245	0	755	715	635	1914	
1246	0	755	716	637	1913	
1247	0	755	716	637	1913	
1248	0	754	716	637	1913	
1249	0	753	716	636	1911	
1250	0	753	716	637	1916	
1251	0	753	716	636	1916	
1252	0	754	716	636	1915	
1253	0	754	716	635	1915	
1254	0	753	716	636	1915	
1255	0	754	717	635	1916	
1256	0	754	717	635	1919	
1257	0	754	717	635	1918	
1258	0	754	717	634	1920	
1259	0	755	717	633	1920	
1260	0	754	716	633	1917	
1261	0	753	717	634	1916	
1262	0	756	717	635	1916	
1263	0	755	716	635	1920	
1264	0	757	717	636	1923	
1265	0	757	718	637	1924	
1266	0	759	717	636	1917	
1267	0	756	716	638	1919	
1268	0	755	717	638	1920	
1269	0	755	717	639	1921	
1270	0	756	718	638	1922	
1271	0	756	717	638	1924	
1272	0	755	718	637	1924	
1273	0	754	717	636	1925	
1274	0	755	718	636	1929	
1275	0	754	716	634	1929	
1276	0	755	718	635	1934	
1277	0	757	717	634	1930	
1278	0	755	717	633	1934	
1279	0	757	718	633	1938	
1280	0	755	717	633	1941	
1281	0	756	718	633	1944	
1282	0	756	716	634	1942	
1283	0	756	719	633	1945	
1284	0	756	718	635	1945	
1285	0	755	716	634	1946	
1286	0	755	717	635	1949	
1287	0	755	718	636	1949	
1288	0	754	717	635	1951	
1289	0	753	717	636	1954	
1290	0	754	717	636	1959	
1291	0	753	717	635	1960	
1292	0	754	716	635	1962	
1293	0	752	717	634	1966	
1294	0	755	718	635	1969	
1295	0	753	716	634	1971	
1296	0	754	717	635	1977	
1297	0	754	717	634	1981	
1298	0	753	716	634	1984	
1299	0	756	717	635	1988	
1300	0	756	716	635	1990	
1301	0	756	717	637	1991	
1302	0	755	715	636	1992	
1303	0	755	717	636	1995	
1304	0	756	717	637	2001	
1305	0	755	716	636	2003	
1306	0	756	717	637	2007	
1307	0	756	715	637	2006	
1308	0	755	716	637	2011	
1309	0	755	716	635	2015	
1310	0	754	715	636	2019	
1311	0	755	715	636	2024	
1312	0	755	715	636	2027	
1313	0	755	717	636	2029	
1314	0	754	716	637	2035	
1315	0	754	715	635	2036	
1316	0	753	715	635	2040	
1317	0	754	715	635	2044	
1318	0	754	715	635	2050	
1319	0	754	716	633	2053	
1320	0	753	715	635	2058	
1321	0	754	716	636	2059	
1322	0	753	715	635	2060	
1323	0	753	715	635	2063	
1324	0	754	716	636	2073	
1325	0	753	716	635	2074	
1326	0	754	716	635	2072	
1327	0	755	716	635	2075	
1328	0	754	716	635	2080	
1329	0	754	716	635	2082	
1330	0	755	717	635	2087	
1331	0	754	716	633	2085	
1332	0	755	716	633	2089	
1333	0	755	716	633	2093	
1334	0	755	716	634	2096	
1335	0	756	717	634	2101	
1336	0	755	716	633	2103	
1337	0	755	716	633	2105	
1338	0	754	716	634	2106	
1339	0	754	716	635	2106	
1340	0	755	716	635	2109	
1341	0	754	715	635	2110	
1342	0	754	716	636	2115	
1343	0	754	716	636	2115	
1344	0	754	716	635	2118	
1345	0	753	715	636	2119	
1346	0	754	716	638	2121	
1347	0	754	715	636	2118	
1348	0	753	716	636	2119	
1349	0	754	717	636	2123	
1350	0	754	716	635	2122	
1351	0	755	716	635	2124	
1352	0	755	716	634	2123	
1353	0	755	716	634	2124	
1354	0	755	717	635	2126	
1355	0	755	716	634	2124	
1356	0	755	716	636	2129	
1357	0	758	715	635	2127	
1358	0	755	717	636	2131	
1359	0	755	717	636	2133	
1360	0	754	716	635	2132	
1361	0	754	716	636	2129	
1362	0	755	716	636	2127	
1363	0	753	716	637	2128	
1364	0	755	717	637	2127	
1365	0	755	717	637	2133	
1366	0	753	716	636	2126	
1367	0	754	717	636	2128	
1368	0	755	717	636	2128	
1369	0	755	717	635	2129	
1370	0	755	717	634	2126	
1371	0	754	716	635	2124	
1372	0	754	716	636	2126	
1373	0	756	717	635	2126	
1374	0	755	717	635	2126	
1375	0	755	716	635	2124	
1376	0	755	716	636	2130	
1377	0	755	716	636	2131	
1378	0	755	717	636	2131	
1379	0	754	716	636	2124	
1380	0	754	716	637	2126	
1381	0	754	716	636	2123	
1382	0	754	716	636	2126	
1383	0	754	715	635	2126	
1384	0	754	716	637	2124	
1385	0	755	717	637	2127	
1386	0	754	716	636	2121	
1387	0	755	716	635	2121	
1388	0	755	716	634	2121	
1389	0	755	717	636	2119	
1390	0	755	716	636	2121	
1391	0	755	717	635	2121	
1392	0	755	716	635	2119	
1393	0	755	716	635	2119	
1394	0	756	717	635	2121	
1395	0	755	716	634	2118	
1396	0	754	716	635	2115	
1397	0	754	716	636	2118	
1398	0	755	717	635	2118	
1399	0	754	716	635	2120	
1400	0	755	717	635	2121	
1401	0	754	716	634	2118	
1402	0	754	716	634	2118	
1403	0	754	715	635	2114	
1404	0	755	716	634	2114	
1405	0	754	717	635	2115	
1406	0	754	716	634	2108	
1407	0	754	716	636	2111	
1408	0	755	717	636	2111	
1409	0	754	716	636	2106	
1410	0	755	717	636	2108	
1411	0	755	716	636	2107	
1412	0	755	716	637	2109	
1413	0	756	715	637	2107	
1414	0	755	716	637	2106	
1415	0	755	716	636	2107	
1416	0	755	716	637	2107	
1417	0	755	715	637	2107	
1418	0	755	715	637	2106	
1419	0	755	716	637	2110	
1420	0	755	715	637	2110	
1421	0	755	716	636	2107	
1422	0	755	715	637	2109	
1423	0	755	716	636	2106	
1424	0	754	716	635	2102	
1425	0	754	716	634	2103	
1426	0	754	715	634	2099	
1427	0	755	717	632	2102	
1428	0	757	717	634	2101	
1429	0	756	716	635	2097	
1430	0	756	717	635	2101	
1431	0	755	716	634	2098	
1432	0	755	716	635	2099	
1433	0	756	716	638	2096	
1434	0	755	716	637	2095	
1435	0	756	717	636	2098	
1436	0	754	715	636	2097	
1437	0	754	715	636	2100	
1438	0	754	715	637	2099	
1439	0	754	715	637	2099	
1440	0	753	715	637	2097	
1441	0	754	716	637	2098	
1442	0	754	719	636	2096	
1443	0	754	716	634	2100	
1444	0	754	717	635	2103	
1445	0	755	716	634	2102	
1446	0	755	717	635	2098	
1447	0	754	716	634	2097	
1448	0	754	715	635	2096	
1449	0	755	716	635	2096	
1450	0	755	716	635	2096	
1451	0	755	715	635	2095	
1452	0	755	716	636	2095	
1453	0	754	715	636	2094	
1454	0	755	716	636	2094	
1455	0	754	715	637	2095	
1456	0	754	715	637	2096	
1457	0	754	715	636	2094	
1458	0	753	715	637	2094	
1459	0	753	716	636	2095	
1460	0	753	715	636	2098	
1461	0	754	715	636	2096	
1462	0	754	715	635	2096	
1463	0	755	715	636	2095	
1464	0	755	716	636	2092	
1465	0	754	716	635	2093	
1466	0	755	716	635	2092	
1467	0	754	716	635	2090	
1468	0	754	715	635	2091	
1469	0	754	716	637	2091	
1470	0	755	717	636	2094	
1471	0	753	715	636	2092	
1472	0	754	716	635	2095	
1473	0	755	717	636	2096	
1474	0	755	716	636	2092	
1475	0	755	717	636	2095	
1476	0	754	716	635	2093	
1477	0	754	716	633	2098	
1478	0	755	717	635	2097	
1479	0	754	716	633	2095	
1480	0	754	716	633	2096	
1481	0	753	716	633	2092	
1482	0	754	716	632	2092	
1483	0	754	716	633	2093	
1484	0	755	717	632	2098	
1485	0	755	717	633	2101	
1486	0	754	716	632	2093	
1487	0	755	717	631	2097	
1488	0	756	717	636	2094	
1489	0	755	716	635	2093	
1490	0	755	716	634	2095	
1491	0	756	716	635	2096	
1492	0	753	716	635	2092	
1493	0	754	716	635	2093	
1494	0	755	717	637	2095	
1495	0	754	716	637	2095	
1496	0	755	716	637	2097	
1497	0	754	716	636	2097	
1498	0	753	715	637	2093	
1499	0	754	715	637	2093	
1500	0	755	716	637	2098	
1501	0	754	715	636	2098	
1502	0	754	715	634	2103	
1503	0	756	717	639	2100	
1504	0	755	716	637	2100	
1505	0	756	717	636	2100	
1506	0	756	716	635	2096	
1507	0	755	716	634	2099	
1508	0	755	717	636	2099	
1509	0	755	716	636	2095	
1510	0	754	716	635	2096	
1511	0	754	716	635	2094	
1512	0	755	716	635	2095	
1513	0	755	715	635	2096	
1514	0	756	717	636	2096	
1515	0	755	716	635	2095	
1516	0	754	716	635	2096	
1517	0	755	716	634	2099	
1518	0	755	717	636	2104	
1519	0	754	717	635	2103	
1520	0	755	717	636	2105	
1521	0	755	716	635	2102	
1522	0	756	715	634	2101	
1523	0	756	716	636	2101	
1524	0	755	716	636	2098	
1525	0	756	717	637	2104	
1526	0	754	716	636	2097	
1527	0	754	716	636	2097	
1528	0	754	715	637	2098	
1529	0	753	717	638	2098	
1530	0	753	717	636	2099	
1531	0	754	716	636	2097	
1532	0	753	716	636	2098	
1533	0	754	716	636	2098	
1534	0	755	716	635	2097	
1535	0	755	717	636	2100	
1536	0	754	716	635	2098	
1537	0	754	716	633	2099	
1538	0	756	717	635	2103	
1539	0	753	717	635	2100	
1540	0	754	716	633	2101	
1541	0	756	717	634	2101	
1542	0	755	716	634	2096	
1543	0	755	716	633	2096	
1544	0	755	717	634	2100	
1545	0	755	716	634	2102	
1546	0	755	716	634	2096	
1547	0	754	716	634	2096	
1548	0	754	716	636	2095	
1549	0	754	716	636	2097	
1550	0	756	716	637	2099	
1551	0	754	715	637	2097	
1552	0	755	715	635	2097	
1553	0	756	716	638	2097	
1554	0	754	715	639	2093	
1555	0	754	715	638	2095	
1556	0	754	715	637	2099	
1557	0	754	715	635	2103	
1558	0	755	716	637	2102	
1559	0	753	716	637	2096	
1560	0	753	715	635	2096	
1561	0	752	715	635	2094	
1562	0	753	716	635	2099	
1563	0	752	715	635	2098	
1564	0	752	715	636	2098	
1565	0	752	715	634	2098	
1566	0	754	716	635	2099	
1567	0	755	715	633	2096	
1568	0	753	716	634	2095	
1569	0	754	716	635	2095	
1570	0	753	715	635	2092	
1571	0	754	717	635	2094	
1572	0	755	716	636	2091	
1573	0	754	716	635	2093	
1574	0	755	716	636	2095	
1575	0	754	714	636	2093	
1576	0	755	715	637	2097	
1577	0	755	715	636	2094	
1578	0	754	716	635	2094	
1579	0	755	717	637	2099	
1580	0	754	716	637	2096	
1581	0	754	716	635	2094	
1582	0	755	717	635	2094	
1583	0	753	716	636	2091	
1584	0	753	716	635	2092	
1585	0	755	717	636	2094	
1586	0	753	716	635	2088	
1587	0	753	716	633	2091	
1588	0	753	717	636	2091	
1589	0	752	716	635	2089	
1590	0	755	717	636	2093	
1591	0	754	716	635	2091	
1592	0	755	716	634	2095	
1593	0	755	717	635	2094	
1594	0	756	717	633	2090	
1595	0	756	716	635	2091	
1596	0	756	716	634	2091	
1597	0	756	717	634	2094	
1598	0	754	716	635	2094	
1599	0	756	716	636	2093	
1600	0	757	717	637	2093	
1601	0	757	717	637	2092	
1602	0	755	716	636	2088	
1603	0	754	717	636	2092	
1604	0	754	717	637	2091	
1605	0	755	717	637	2095	
1606	0	754	717	637	2090	
1607	0	753	716	636	2086	
1608	0	753	717	636	2087	
1609	0	753	717	637	2089	
1610	0	753	717	635	2086	
1611	0	754	717	635	2088	
1612	0	754	717	634	2089	
1613	0	754	716	633	2087	
1614	0	753	717	634	2087	
1615	0	753	717	633	2089	
1616	0	754	717	633	2095	
1617	0	755	718	633	2092	
1618	0	755	717	632	2089	
1619	0	754	717	634	2089	
1620	0	755	716	633	2090	
1621	0	757	717	634	2091	
1622	0	757	718	634	2092	
1623	0	756	716	634	2089	
1624	0	755	717	635	2086	
1625	0	756	717	636	2087	
1626	0	756	717	637	2087	
1627	0	755	716	636	2083	
1628	0	756	716	637	2084	
1629	0	755	717	637	2086	
1630	0	754	716	637	2085	
1631	0	755	716	637	2087	
1632	0	754	717	636	2084	
1633	0	753	717	637	2084	
1634	0	753	717	636	2082	
1635	0	754	717	637	2084	
1636	0	754	716	635	2084	
1637	0	754	716	634	2090	
1638	0	754	716	637	2086	
1639	0	753	716	636	2086	
1640	0	753	716	635	2087	
1641	0	754	716	634	2082	
1642	0	753	717	633	2081	
1643	0	752	716	634	2081	
1644	0	752	716	634	2082	
1645	0	754	717	634	2082	
1646	0	753	716	633	2079	
1647	0	753	716	632	2081	
1648	0	754	717	635	2081	
1649	0	753	717	634	2079	
1650	0	754	717	635	2082	
1651	0	753	716	634	2079	
1652	0	753	717	634	2080	
1653	0	752	716	635	2081	
1654	0	753	717	635	2076	
1655	0	755	718	635	2077	
1656	0	754	717	635	2076	
1657	0	755	717	635	2080	
1658	0	754	717	635	2081	
1659	0	755	717	636	2080	
1660	0	754	716	635	2081	
1661	0	755	716	635	2077	
1662	0	755	718	634	2078	
1663	0	754	717	635	2078	
1664	0	755	717	635	2082	
1665	0	756	717	635	2083	
1666	0	755	716	634	2075	
1667	0	755	716	634	2075	
1668	0	755	716	635	2078	
1669	0	754	716	635	2077	
1670	0	756	717	636	2080	
1671	0	754	716	636	2076	
1672	0	754	716	636	2078	
1673	0	755	717	636	2078	
1674	0	753	716	636	2074	
1675	0	755	717	636	2078	
1676	0	755	716	636	2079	
1677	0	755	715	636	2082	
1678	0	755	716	637	2078	
1679	0	754	716	636	2076	
1680	0	756	717	637	2079	
1681	0	754	716	636	2078	
1682	0	756	716	635	2081	
1683	0	756	716	636	2082	
1684	0	754	716	635	2079	
1685	0	756	717	636	2079	
1686	0	754	716	635	2074	
1687	0	755	715	635	2073	
1688	0	753	716	635	2072	
1689	0	754	716	636	2073	
1690	0	756	716	637	2075	
1691	0	755	716	635	2072	
1692	0	755	716	636	2076	
1693	0	756	717	636	2076	
1694	0	754	716	636	2073	
1695	0	755	717	637	2075	
1696	0	754	716	635	2073	
1697	0	753	715	636	2076	
1698	0	754	717	635	2079	
1699	0	753	716	635	2076	
1700	0	754	716	635	2078	
1701	0	753	715	634	2075	
1702	0	753	716	634	2075	
1703	0	755	717	634	2076	
1704	0	754	716	634	2075	
1705	0	755	717	634	2079	
1706	0	754	716	634	2071	
1707	0	755	716	634	2073	
1708	0	755	717	636	2073	
1709	0	754	717	635	2072	
1710	0	754	716	635	2071	
1711	0	754	716	636	2070	
1712	0	753	716	636	2069	
1713	0	753	716	637	2068	
1714	0	754	716	637	2070	
1715	0	754	715	636	2068	
1716	0	754	715	636	2072	
1717	0	754	715	636	2072	
1718	0	752	715	636	2072	
1719	0	752	715	636	2071	
1720	0	753	716	635	2071	
1721	0	752	715	634	2068	
1722	0	752	715	634	2071	
1723	0	753	716	634	2071	
1724	0	753	717	635	2074	
1725	0	754	716	633	2071	
1726	0	754	716	635	2070	
1727	0	754	716	634	2068	
1728	0	753	715	634	2067	
1729	0	753	716	635	2065	
1730	0	754	715	635	2066	
1731	0	754	715	636	2067	
1732	0	755	715	636	2066	
1733	0	756	715	637	2068	
1734	0	756	716	637	2071	
1735	0	755	715	637	2069	
1736	0	755	715	637	2070	
1737	0	754	715	637	2070	
1738	0	755	715	636	2068	
1739	0	754	716	637	2071	
1740	0	755	716	637	2070	
1741	0	755	715	636	2066	
1742	0	754	715	636	2067	
1743	0	756	714	636	2065	
1744	0	755	716	637	2068	
1745	0	754	715	635	2064	
1746	0	754	715	636	2062	
1747	0	753	715	636	2062	
1748	0	755	715	636	2064	
1749	0	755	716	637	2068	
1750	0	754	715	636	2066	
1751	0	756	716	638	2067	
1752	0	754	715	636	2063	
1753	0	754	715	637	2062	
1754	0	752	716	637	2063	
1755	0	754	717	637	2065	
1756	0	753	715	636	2063	
1757	0	754	715	636	2069	
1758	0	754	716	636	2069	
1759	0	752	716	636	2068	
1760	0	754	716	636	2065	
1761	0	754	715	636	2065	
1762	0	753	715	634	2062	
1763	0	754	715	634	2066	
1764	0	754	716	634	2067	
1765	0	755	717	634	2070	
1766	0	755	717	635	2065	
1767	0	755	715	634	2062	
1768	0	755	715	634	2063	
1769	0	756	716	635	2066	
1770	0	756	716	635	2064	
1771	0	756	718	635	2061	
1772	0	754	716	636	2064	
1773	0	755	717	636	2065	
1774	0	755	716	636	2066	
1775	0	755	716	636	2063	
1776	0	756	716	637	2067	
1777	0	755	716	637	2063	
1778	0	755	716	637	2063	
1779	0	754	715	636	2063	
1780	0	756	716	637	2067	
1781	0	754	715	635	2065	
1782	0	754	716	635	2068	
1783	0	755	717	635	2067	
1784	0	754	716	634	2062	
1785	0	754	717	635	2064	
1786	0	754	716	634	2059	
1787	0	754	716	634	2057	
1788	0	755	716	633	2058	
1789	0	754	716	634	2057	
1790	0	753	716	634	2059	
1791	0	754	717	635	2063	
1792	0	755	716	636	2059	
1793	0	755	715	635	2060	
1794	0	755	718	636	2060	
1795	0	754	716	635	2058	
1796	0	755	717	637	2062	
1797	0	757	715	635	2063	
1798	0	755	715	636	2063	
1799	0	755	717	636	2065	
1800	0	754	715	635	2062	
1801	0	754	717	636	2060	
1802	0	757	716	635	2057	
1803	0	755	716	636	2057	
1804	0	756	717	636	2061	
1805	0	755	716	635	2059	
1806	0	756	717	636	2056	
1807	0	756	716	633	2054	
1808	0	755	716	635	2055	
1809	0	755	716	635	2054	
1810	0	754	716	635	2055	
1811	0	753	717	637	2057	
1812	0	754	717	636	2054	
1813	0	754	716	636	2053	
1814	0	754	717	637	2054	
1815	0	754	715	635	2054	
1816	0	753	717	636	2059	
1817	0	755	714	636	2056	
1818	0	755	716	635	2053	
1819	0	756	717	636	2055	
1820	0	754	716	634	2053	
1821	0	753	717	635	2058	
1822	0	758	717	634	2055	
1823	0	756	716	635	2057	
1824	0	756	718	635	2060	
1825	0	756	716	634	2054	
1826	0	755	718	635	2056	
1827	0	757	716	635	2053	
1828	0	756	716	635	2052	
1829	0	756	717	636	2054	
1830	0	755	717	634	2052	
1831	0	755	716	635	2050	
1832	0	755	716	636	2054	
1833	0	756	717	636	2054	
1834	0	755	716	636	2053	
1835	0	756	717	636	2054	
1836	0	754	716	635	2052	
1837	0	754	716	635	2054	
1838	0	755	717	636	2058	
1839	0	753	716	636	2055	
1840	0	753	716	634	2054	
1841	0	753	716	635	2054	
1842	0	753	716	635	2051	
1843	0	752	716	634	2051	
1844	0	753	717	635	2052	
1845	0	754	717	635	2055	
1846	0	754	716	634	2049	
1847	0	754	716	634	2052	
1848	0	755	717	634	2051	
1849	0	754	716	633	2052	
1850	0	754	716	633	2053	
1851	0	754	716	633	2054	
1852	0	754	716	633	2051	
1853	0	755	716	634	2050	
1854	0	755	716	635	2051	
1855	0	755	716	636	2052	
1856	0	754	716	635	2054	
1857	0	754	716	635	2057	
1858	0	754	717	637	2056	
1859	0	754	716	636	2051	
1860	0	753	715	636	2052	
1861	0	753	716	636	2051	
1862	0	753	716	636	2054	
1863	0	753	716	636	2054	
1864	0	753	716	636	2053	
1865	0	753	717	637	2056	
1866	0	753	716	635	2050	
1867	0	753	716	635	2053	
1868	0	755	717	635	2052	
1869	0	754	716	635	2048	
1870	0	755	717	635	2049	
1871	0	754	716	634	2047	
1872	0	754	716	635	2049	
1873	0	755	717	635	2048	
1874	0	755	716	635	2046	
1875	0	755	716	635	2049	
1876	0	753	717	636	2049	
1877	0	758	715	635	2047	
1878	0	756	715	636	2047	
1879	0	756	717	637	2049	
1880	0	754	715	636	2048	
1881	0	752	716	638	2049	
1882	0	757	715	637	2047	
1883	0	753	714	637	2047	
1884	0	754	716	638	2049	
1885	0	752	715	636	2047	
1886	0	753	715	636	2047	
1887	0	753	715	636	2050	
1888	0	754	716	636	2048	
1889	0	753	716	634	2047	
1890	0	754	716	635	2048	
1891	0	754	716	634	2045	
1892	0	754	716	635	2048	
1893	0	756	716	635	2049	
1894	0	754	715	635	2049	
1895	0	754	716	634	2046	
1896	0	754	716	634	2044	
1897	0	755	716	635	2043	
1898	0	755	716	635	2044	
1899	0	755	716	635	2044	
1900	0	755	716	635	2046	
1901	0	754	717	635	2045	
1902	0	755	716	635	2043	
1903	0	756	715	636	2044	
1904	0	755	715	636	2044	
1905	0	754	715	636	2045	
1906	0	754	716	636	2046	
1907	0	755	716	636	2046	
1908	0	756	715	636	2047	
1909	0	752	716	636	2048	
1910	0	753	715	635	2049	
1911	0	752	716	635	2047	
1912	0	753	716	635	2047	
1913	0	755	716	635	2047	
1914	0	754	716	635	2046	
1915	0	753	716	635	2046	
1916	0	753	717	635	2044	
1917	0	753	716	634	2042	
1918	0	754	716	635	2042	
1919	0	754	716	634	2043	
1920	0	755	716	635	2043	
1921	0	754	716	635	2041	
1922	0	755	715	634	2040	
1923	0	755	716	634	2041	
1924	0	754	716	634	2043	
1925	0	755	717	635	2044	
1926	0	754	716	634	2043	
1927	0	753	715	635	2044	
1928	0	755	716	636	2045	
1929	0	754	716	635	2041	
1930	0	755	717	636	2039	
1931	0	755	715	636	2033	
1932	0	755	716	636	2029	
1933	0	755	715	637	2027	
1934	0	755	716	637	2026	
1935	0	754	715	637	2022	
1936	0	754	716	636	2017	
1937	0	756	716	637	2017	
1938	0	754	716	637	2018	
1939	0	754	716	637	2015	
1940	0	754	716	637	2015	
1941	0	753	715	636	2012	
1942	0	754	716	635	2012	
1943	0	754	716	636	2012	
1944	0	755	716	636	2014	
1945	0	754	716	635	2012	
1946	0	754	716	635	2014	
1947	0	754	716	635	2011	
1948	0	754	716	635	2011	
1949	0	754	717	636	2011	
1950	0	754	715	636	2011	
1951	0	753	717	636	2011	
1952	0	755	715	636	2007	
1953	0	755	716	635	2005	
1954	0	754	716	636	2005	
1955	0	755	717	637	2005	
1956	0	754	716	636	2003	
1957	0	754	716	636	2003	
1958	0	754	717	636	2003	
1959	0	754	717	636	1999	
1960	0	755	717	636	1999	
1961	0	754	717	635	1995	
1962	0	754	716	635	1995	
1963	0	755	717	635	1996	
1964	0	755	716	635	1995	
1965	0	755	716	634	1996	
1966	0	754	717	635	2002	
1967	0	758	716	634	2004	
1968	0	756	716	635	2006	
1969	0	756	717	635	2011	
1970	0	755	716	634	2007	
1971	0	754	717	635	2008	
1972	0	757	716	634	2005	
1973	0	754	716	635	2007	
1974	0	755	716	635	2011	
1975	0	754	716	635	2011	
1976	0	751	717	636	2011	
1977	0	756	715	634	2008	
1978	0	754	717	635	2009	
1979	0	754	717	636	2012	
1980	0	754	716	635	2011	
1981	0	752	717	636	2014	
1982	0	754	719	635	2012	
1983	0	753	716	634	2014	
1984	0	752	716	635	2015	
1985	0	754	717	636	2018	
1986	0	752	716	635	2019	
1987	0	754	716	636	2020	
1988	0	755	717	636	2024	
1989	0	755	716	636	2024	
1990	0	754	716	635	2026	
1991	0	753	717	636	2032	
1992	0	754	717	635	2030	
1993	0	753	716	636	2031	
1994	0	754	717	636	2034	
1995	0	753	717	635	2033	
1996	0	752	718	636	2037	
1997	0	754	718	638	2037	
1998	0	754	716	635	2040	
1999	0	754	717	635	2046	
2000	0	754	715	634	2047	
2001	0	752	717	635	2049	
2002	0	754	719	634	2048	
2003	0	753	716	634	2050	
2004	0	754	717	635	2054	
2005	0	753	716	634	2053	
2006	0	753	716	634	2055	
2007	0	754	716	634	2059	
2008	0	754	716	633	2065	
2009	0	753	715	634	2068	
2010	0	753	716	634	2070	
2011	0	754	717	635	2073	
2012	0	755	717	633	2071	
2013	0	754	717	635	2072	
2014	0	755	717	636	2076	
2015	0	754	716	635	2075	
2016	0	754	716	635	2073	
2017	0	754	715	635	2074	
2018	0	754	716	636	2074	
2019	0	753	716	635	2073	
2020	0	753	716	636	2073	
2021	0	752	716	636	2076	
2022	0	754	719	635	2073	
2023	0	754	715	636	2073	
2024	0	754	716	636	2076	
2025	0	753	716	635	2073	
2026	0	752	717	636	2078	
2027	0	756	715	634	2076	
2028	0	754	717	635	2075	
2029	0	755	717	636	2076	
2030	0	754	715	635	2073	
2031	0	754	715	635	2072	
2032	0	754	715	635	2073	
2033	0	754	716	636	2074	
2034	0	754	716	637	2078	
2035	0	753	716	636	2074	
2036	0	752	715	636	2072	
2037	0	753	715	636	2071	
2038	0	753	716	635	2071	
2039	0	752	716	635	2070	
2040	0	754	716	636	2071	
2041	0	752	716	635	2068	
2042	0	753	716	634	2069	
2043	0	754	716	635	2070	
2044	0	753	715	635	2068	
2045	0	755	716	636	2069	
2046	0	754	715	635	2065	
2047	0	754	715	636	2065	
2048	0	755	716	636	2070	
2049	0	754	715	635	2070	
2050	0	755	717	635	2073	
2051	0	754	716	635	2070	
2052	0	754	716	636	2069	
2053	0	755	717	637	2070	
2054	0	754	715	636	2068	
2055	0	754	716	637	2069	
2056	0	754	715	636	2066	
2057	0	753	715	637	2066	
2058	0	754	715	637	2065	
2059	0	754	715	637	2065	
2060	0	755	715	636	2063	
2061	0	753	715	636	2058	
2062	0	755	716	635	2051	
2063	0	755	716	635	2043	
2064	0	753	715	635	2033	
2065	0	754	715	634	2022	
2066	0	754	715	634	2012	
2067	0	753	715	634	2002	
2068	0	754	715	633	1993	
2069	0	754	715	634	1984	
2070	0	754	715	634	1977	
2071	0	754	715	635	1968	
2072	0	755	715	635	1956	
2073	0	755	715	634	1937	
2074	0	753	715	635	1916	
2075	0	754	716	635	1892	
2076	0	755	715	636	1862	
2077	0	754	716	636	1836	
2078	0	755	715	636	1815	
2079	0	754	714	637	1801	
2080	0	753	715	637	1790	
2081	0	753	715	637	1786	
2082	0	753	715	637	1792	
2083	0	753	715	636	1810	
2084	0	752	715	637	1834	
2085	0	753	716	635	1864	
2086	0	753	717	636	1895	
2087	0	755	717	638	1921	
2088	0	755	716	634	1944	
2089	0	753	715	634	1962	
2090	0	754	715	634	1970	
2091	0	754	715	634	1974	
2092	0	755	715	633	1974	
2093	0	756	715	633	1970	
2094	0	754	715	633	1973	
2095	0	755	715	633	1982	
2096	0	755	716	633	1995	
2097	0	755	715	634	2012	
2098	0	755	716	634	2036	
2099	0	754	715	635	2070	
2100	0	754	715	636	2111	
2101	0	755	716	636	2164	
2102	0	754	716	636	2225	
2103	0	755	715	636	2291	
2104	0	754	715	637	2363	
2105	0	754	716	637	2427	
2106	0	754	716	637	2481	
2107	0	754	716	636	2513	
2108	0	755	716	636	2529	
2109	0	753	715	636	2531	
2110	0	754	715	635	2522	
2111	0	754	715	635	2506	
2112	0	754	715	635	2485	
2113	0	754	715	634	2461	
2114	0	753	716	635	2435	
2115	0	754	715	635	2406	
2116	0	753	716	634	2377	
2117	0	754	716	634	2352	
2118	0	754	716	633	2327	
2119	0	753	716	634	2302	
2120	0	754	716	634	2276	
2121	0	755	717	635	2254	
2122	0	756	717	638	2227	
2123	0	757	716	635	2203	
2124	0	755	715	636	2179	
2125	0	754	717	635	2153	
2126	0	754	716	636	2131	
2127	0	755	716	636	2112	
2128	0	755	716	637	2091	
2129	0	753	716	637	2072	
2130	0	754	717	637	2058	
2131	0	753	716	636	2046	
2132	0	754	716	635	2038	
2133	0	754	717	636	2035	
2134	0	753	716	635	2030	
2135	0	755	717	636	2029	
2136	0	753	716	635	2021	
2137	0	754	715	634	2019	
2138	0	755	717	635	2020	
2139	0	753	715	634	2017	
2140	0	753	715	634	2014	
2141	0	754	716	635	2017	
2142	0	756	715	635	2015	
2143	0	754	717	635	2016	
2144	0	755	716	636	2017	
2145	0	754	715	636	2014	
2146	0	755	716	636	2016	
2147	0	755	716	636	2014	
2148	0	755	717	637	2014	
2149	0	754	715	637	2011	
2150	0	755	716	637	2011	
2151	0	754	716	637	2008	
2152	0	754	716	636	2010	
2153	0	755	716	637	2011	
2154	0	753	716	636	2008	
2155	0	754	716	636	2008	
2156	0	754	716	635	2006	
2157	0	754	716	635	2007	
2158	0	755	717	635	2008	
2159	0	754	715	635	2006	
2160	0	755	717	635	2010	
2161	0	754	716	634	2008	
2162	0	754	716	634	2009	
2163	0	754	716	635	2009	
2164	0	753	715	635	2005	
2165	0	755	717	636	2006	
2166	0	752	717	636	2003	
2167	0	753	716	636	2003	
2168	0	754	717	637	2005	
2169	0	754	715	637	2007	
2170	0	755	717	637	2010	
2171	0	754	716	636	2006	
2172	0	754	716	636	2005	
2173	0	755	716	637	2008	
2174	0	754	715	636	2007	
2175	0	755	717	636	2011	
2176	0	754	717	635	2006	
2177	0	755	716	634	2005	
2178	0	756	717	635	2007	
2179	0	754	716	635	2006	
2180	0	755	717	635	2006	
2181	0	754	716	634	2001	
2182	0	756	716	634	2001	
2183	0	754	716	635	2002	
2184	0	753	715	634	2002	
2185	0	753	716	635	2000	
2186	0	754	717	636	2006	
2187	0	755	717	637	2002	
2188	0	754	716	635	2001	
2189	0	754	716	636	2004	
2190	0	754	715	635	2000	
2191	0	754	717	635	2003	
2192	0	755	717	636	2002	
2193	0	755	717	635	2001	
2194	0	754	715	635	2001	
2195	0	755	716	635	1999	
2196	0	755	716	635	1999	
2197	0	755	716	635	2000	
2198	0	755	716	635	1998	
2199	0	753	716	635	1998	
2200	0	754	716	635	1996	
2201	0	753	716	635	1997	
2202	0	754	717	634	1997	
2203	0	754	716	634	1997	
2204	0	753	716	635	1998	
2205	0	754	716	635	1996	
2206	0	754	716	634	1997	
2207	0	754	715	635	1998	
2208	0	755	716	635	1998	
2209	0	753	715	636	2000	
2210	0	754	715	635	1999	
2211	0	754	716	635	1998	
2212	0	755	716	635	1994	
2213	0	755	717	636	1995	
2214	0	754	716	636	1998	
2215	0	755	715	636	1995	
2216	0	755	715	636	1994	
2217	0	755	715	636	1994	
2218	0	755	716	636	1995	
2219	0	754	715	637	1996	
2220	0	753	715	637	1995	
2221	0	753	715	637	1995	
2222	0	753	715	637	1993	
2223	0	753	715	637	1995	
2224	0	752	714	638	1995	
2225	0	752	715	637	1992	
2226	0	752	715	637	1993	
2227	0	752	714	637	1992	
2228	0	754	715	637	1991	
2229	0	753	715	636	1993	
2230	0	752	715	636	1992	
2231	0	753	715	635	1991	
2232	0	753	715	635	1990	
2233	0	753	715	636	1991	
2234	0	752	715	635	1990	
2235	0	753	715	635	1989	
2236	0	754	716	634	1988	
2237	0	755	716	634	1990	
2238	0	755	717	634	1990	
2239	0	754	716	634	1990	
2240	0	755	716	633	1988	
2241	0	755	716	634	1988	
2242	0	755	715	634	1988	
2243	0	756	716	634	1989	
2244	0	754	716	635	1988	
2245	0	755	716	635	1986	
2246	0	754	716	636	1989	
2247	0	754	715	637	1990	
2248	0	754	715	638	1991	
2249	0	753	715	638	1988	
2250	0	752	715	637	1985	
2251	0	752	716	637	1987	
2252	0	753	716	637	1985	
2253	0	753	715	636	1987	
2254	0	752	715	636	1988	
2255	0	754	716	636	1989	
2256	0	753	715	634	1985	
2257	0	753	715	633	1986	
2258	0	754	716	634	1988	
2259	0	752	716	633	1985	
2260	0	754	716	635	1983	
2261	0	753	716	634	1979	
2262	0	754	716	634	1980	
2263	0	755	716	634	1979	
2264	0	754	716	635	1980	
2265	0	756	717	636	1981	
2266	0	754	716	636	1981	
2267	0	754	717	636	1980	
2268	0	754	716	636	1980	
2269	0	752	716	637	1981	
2270	0	754	717	637	1986	
2271	0	753	716	635	1983	
2272	0	754	717	636	1984	
2273	0	754	717	635	1982	
2274	0	753	716	636	1980	
2275	0	754	717	636	1981	
2276	0	754	716	635	1978	
2277	0	754	716	634	1980	
2278	0	755	717	636	1979	
2279	0	753	717	635	1978	
2280	0	755	717	636	1979	
2281	0	755	716	635	1977	
2282	0	753	718	635	1976	
2283	0	755	717	635	1976	
2284	0	755	716	635	1975	
2285	0	755	716	635	1975	
2286	0	756	716	635	1975	
2287	0	756	718	635	1979	
2288	0	756	717	635	1980	
2289	0	754	716	635	1978	
2290	0	755	718	635	1977	
2291	0	757	717	635	1974	
2292	0	755	716	634	1974	
2293	0	755	717	635	1976	
2294	0	754	717	634	1975	
2295	0	754	717	634	1972	
2296	0	754	716	635	1970	
2297	0	755	719	635	1968	
2298	0	755	717	634	1968	
2299	0	755	718	636	1970	
2300	0	754	717	634	1968	
2301	0	755	716	635	1972	
2302	0	755	718	633	1970	
2303	0	753	717	634	1969	
2304	0	755	717	636	1970	
2305	0	754	716	635	1966	
2306	0	755	716	636	1969	
2307	0	755	716	635	1968	
2308	0	756	717	636	1971	
2309	0	754	716	636	1968	
2310	0	754	716	635	1964	
2311	0	754	717	635	1966	
2312	0	755	717	635	1967	
2313	0	756	717	636	1968	
2314	0	756	716	635	1964	
2315	0	756	716	635	1961	
2316	0	755	715	635	1960	
2317	0	756	715	634	1959	
2318	0	756	717	635	1960	
2319	0	755	716	635	1959	
2320	0	755	716	634	1958	
2321	0	755	716	634	1959	
2322	0	754	716	635	1959	
2323	0	755	716	636	1960	
2324	0	754	715	636	1957	
2325	0	754	715	635	1956	
2326	0	755	714	636	1958	
2327	0	755	716	639	1955	
2328	0	754	717	636	1953	
2329	0	754	716	636	1953	
2330	0	754	716	636	1953	
2331	0	752	716	636	1951	
2332	0	753	715	636	1952	
2333	0	754	716	636	1951	
2334	0	753	715	636	1948	
2335	0	754	716	636	1949	
2336	0	753	715	635	1947	
2337	0	752	715	634	1946	
2338	0	754	717	634	1945	
2339	0	753	715	634	1945	
2340	0	754	715	633	1944	
2341	0	754	715	633	1942	
2342	0	754	715	633	1944	
2343	0	754	716	634	1945	
2344	0	753	715	633	1943	
2345	0	754	716	634	1945	
2346	0	754	715	634	1941	
2347	0	753	716	634	1940	
2348	0	754	717	634	1940	
2349	0	754	716	635	1941	
2350	0	755	717	636	1942	
2351	0	754	715	636	1936	
2352	0	753	715	636	1936	
2353	0	754	715	637	1935	
2354	0	754	716	637	1931	
2355	0	754	716	638	1933	
2356	0	754	715	637	1927	
2357	0	754	715	637	1929	
2358	0	755	716	637	1929	
2359	0	755	715	637	1929	
2360	0	756	716	638	1930	
2361	0	755	715	637	1926	
2362	0	754	715	636	1926	
2363	0	754	717	636	1925	
2364	0	754	715	635	1925	
2365	0	755	716	636	1926	
2366	0	753	715	635	1926	
2367	0	754	715	635	1925	
2368	0	754	716	635	1925	
2369	0	752	714	635	1924	
2370	0	753	716	635	1926	
2371	0	751	717	634	1924	
2372	0	751	716	635	1926	
2373	0	752	717	634	1926	
2374	0	753	716	634	1927	
2375	0	753	716	634	1923	
2376	0	753	716	635	1920	
2377	0	754	716	634	1918	
2378	0	755	717	635	1919	
2379	0	755	715	636	1921	
2380	0	754	716	635	1920	
2381	0	755	715	635	1921	
2382	0	753	716	635	1921	
2383	0	754	717	636	1922	
2384	0	753	715	636	1925	
2385	0	754	715	635	1925	
2386	0	754	716	635	1926	
2387	0	753	716	635	1925	
2388	0	754	717	635	1925	
2389	0	754	716	635	1928	
2390	0	755	716	634	1927	
2391	0	754	716	634	1928	
2392	0	753	717	634	1927	
2393	0	755	718	634	1927	
2394	0	754	716	634	1928	
2395	0	753	716	634	1926	
2396	0	754	716	635	1926	
2397	0	754	716	635	1929	
2398	0	755	717	635	1933	
2399	0	753	717	635	1932	
2400	0	754	717	635	1932	
2401	0	754	715	635	1935	
2402	0	754	717	637	1934	
2403	0	755	717	635	1936	
2404	0	755	718	636	1939	
2405	0	755	717	635	1936	
2406	0	755	715	636	1941	
2407	0	755	718	635	1940	
2408	0	755	719	635	1939	
2409	0	754	717	636	1940	
2410	0	754	717	636	1942	
2411	0	754	717	636	1944	
2412	0	754	717	636	1947	
2413	0	754	717	636	1951	
2414	0	754	717	636	1954	
2415	0	754	717	635	1953	
2416	0	753	717	634	1955	
2417	0	752	717	635	1958	
2418	0	752	719	634	1959	
2419	0	752	717	634	1962	
2420	0	752	717	634	1964	
2421	0	752	717	634	1966	
2422	0	753	718	635	1967	
2423	0	754	718	635	1968	
2424	0	754	717	636	1972	
2425	0	754	717	635	1974	
2426	0	754	717	636	1980	
2427	0	754	718	636	1980	
2428	0	755	717	636	1980	
2429	0	754	717	636	1985	
2430	0	754	717	636	1987	
2431	0	753	717	636	1992	
2432	0	753	718	636	1993	
2433	0	754	718	636	1996	
2434	0	754	717	636	2001	
2435	0	755	717	636	2002	
2436	0	756	716	636	2007	
2437	0	756	718	634	2008	
2438	0	754	718	635	2013	
2439	0	755	717	635	2016	
2440	0	754	716	635	2018	
2441	0	753	716	636	2021	
2442	0	754	716	635	2025	
2443	0	755	717	636	2029	
2444	0	754	716	635	2031	
2445	0	754	717	636	2038	
2446	0	756	716	635	2041	
2447	0	752	716	634	2044	
2448	0	753	717	635	2048	
2449	0	752	717	634	2049	
2450	0	753	717	634	2053	
2451	0	753	715	635	2060	
2452	0	755	719	635	2060	
2453	0	753	717	634	2063	
2454	0	753	716	634	2065	
2455	0	754	716	634	2067	
2456	0	754	714	635	2070	
2457	0	754	717	635	2070	
2458	0	754	716	635	2073	
2459	0	755	716	636	2078	
2460	0	754	715	635	2077	
2461	0	753	714	636	2083	
2462	0	754	717	635	2086	
2463	0	754	716	635	2085	
2464	0	753	715	635	2090	
2465	0	754	717	635	2095	
2466	0	757	715	635	2095	
2467	0	754	716	634	2099	
2468	0	755	717	635	2104	
2469	0	754	716	634	2104	
2470	0	755	717	635	2104	
2471	0	754	716	634	2103	
2472	0	755	716	634	2105	
2473	0	754	717	634	2107	
2474	0	754	716	635	2111	
2475	0	754	716	635	2112	
2476	0	753	714	635	2110	
2477	0	755	715	635	2110	
2478	0	754	716	635	2113	
2479	0	754	715	635	2114	
2480	0	753	716	635	2115	
2481	0	754	716	636	2118	
2482	0	754	716	635	2119	
2483	0	753	717	635	2120	
2484	0	754	716	635	2120	
2485	0	753	716	634	2119	
2486	0	752	716	635	2124	
2487	0	754	716	635	2122	
2488	0	754	718	636	2122	
2489	0	754	715	634	2120	
2490	0	755	716	635	2119	
2491	0	755	716	636	2121	
2492	0	756	716	636	2122	
2493	0	756	716	636	2124	
2494	0	756	715	636	2124	
2495	0	755	716	636	2123	
2496	0	755	716	636	2121	
2497	0	755	717	636	2121	
2498	0	756	717	637	2122	
2499	0	755	716	637	2122	
2500	0	755	717	637	2121	
2501	0	754	716	637	2121	
2502	0	754	717	637	2122	
2503	0	755	717	637	2121	
2504	0	754	716	636	2122	
2505	0	754	716	636	2121	
2506	0	753	716	636	2121	
2507	0	753	717	636	2120	
2508	0	753	717	636	2123	
2509	0	753	715	635	2124	
2510	0	753	716	635	2122	
2511	0	752	715	634	2118	
2512	0	752	716	635	2117	
2513	0	754	717	634	2116	
2514	0	753	716	635	2117	
2515	0	753	716	635	2117	
2516	0	754	716	634	2115	
2517	0	754	717	635	2115	
2518	0	755	717	635	2116	
2519	0	755	716	635	2117	
2520	0	755	717	635	2115	
2521	0	754	716	636	2114	
2522	0	755	717	635	2113	
2523	0	755	717	635	2113	
2524	0	754	716	636	2112	
2525	0	754	716	635	2109	
2526	0	754	716	635	2112	
2527	0	754	716	635	2112	
2528	0	754	717	635	2110	
2529	0	754	716	635	2109	
2530	0	754	716	635	2106	
2531	0	754	716	635	2107	
2532	0	754	716	635	2108	
2533	0	755	716	636	2108	
2534	0	754	715	636	2110	
2535	0	754	715	635	2107	
2536	0	754	716	636	2106	
2537	0	753	716	636	2106	
2538	0	754	718	636	2103	
2539	0	753	715	637	2105	
2540	0	753	715	636	2104	
2541	0	754	716	636	2104	
2542	0	753	716	636	2103	
2543	0	755	716	636	2102	
2544	0	754	715	636	2102	
2545	0	754	715	636	2099	
2546	0	754	715	636	2099	
2547	0	754	715	635	2099	
2548	0	754	717	635	2100	
2549	0	754	715	635	2104	
2550	0	754	716	635	2103	
2551	0	754	716	635	2103	
2552	0	754	716	635	2102	
2553	0	754	716	634	2102	
2554	0	753	715	634	2103	
2555	0	754	717	634	2104	
2556	0	754	716	633	2097	
2557	0	753	717	633	2096	
2558	0	753	717	633	2095	
2559	0	753	716	632	2096	
2560	0	754	717	634	2097	
2561	0	754	716	633	2095	
2562	0	754	716	634	2094	
2563	0	754	716	634	2093	
2564	0	753	715	636	2094	
2565	0	754	716	637	2095	
2566	0	754	716	636	2092	
2567	0	754	716	637	2093	
2568	0	756	716	638	2097	
2569	0	755	715	637	2096	
2570	0	755	716	638	2099	
2571	0	755	715	638	2096	
2572	0	754	716	637	2095	
2573	0	756	716	638	2096	
2574	0	754	715	637	2094	
2575	0	754	716	637	2092	
2576	0	755	716	636	2093	
2577	0	755	716	636	2094	
2578	0	756	717	635	2096	
2579	0	754	716	634	2093	
2580	0	754	716	634	2091	
2581	0	754	716	633	2091	
2582	0	754	717	633	2091	
2583	0	755	717	634	2094	
2584	0	754	715	633	2092	
2585	0	755	716	634	2092	
2586	0	755	716	634	2094	
2587	0	755	716	634	2094	
2588	0	755	717	636	2095	
2589	0	754	715	635	2091	
2590	0	755	717	636	2094	
2591	0	754	715	636	2092	
2592	0	754	716	636	2093	
2593	0	755	717	637	2097	
2594	0	754	716	636	2094	
2595	0	755	716	636	2090	
2596	0	755	716	636	2087	
2597	0	755	716	636	2086	
2598	0	755	716	636	2085	
2599	0	754	716	636	2086	
2600	0	756	717	636	2088	
2601	0	755	716	635	2086	
2602	0	755	716	635	2087	
2603	0	756	717	636	2091	
2604	0	754	716	634	2090	
2605	0	754	717	635	2089	
2606	0	755	717	636	2097	
2607	0	757	717	638	2094	
2608	0	756	717	635	2089	
2609	0	755	716	635	2092	
2610	0	755	716	635	2093	
2611	0	755	716	635	2094	
2612	0	755	717	635	2095	
2613	0	756	717	636	2096	
2614	0	755	715	635	2095	
2615	0	755	717	636	2096	
2616	0	755	715	635	2093	
2617	0	754	716	635	2094	
2618	0	754	717	635	2094	
2619	0	754	716	633	2094	
2620	0	754	717	634	2090	
2621	0	753	716	634	2092	
2622	0	754	716	634	2094	
2623	0	755	717	635	2097	
2624	0	755	716	633	2095	
2625	0	755	717	634	2096	
2626	0	755	715	634	2094	
2627	0	754	716	634	2095	
2628	0	754	716	634	2095	
2629	0	754	716	633	2097	
2630	0	754	716	634	2093	
2631	0	754	716	635	2093	
2632	0	754	716	635	2094	
2633	0	754	716	636	2095	
2634	0	756	716	637	2100	
2635	0	753	715	637	2097	
2636	0	753	716	637	2097	
2637	0	754	716	636	2095	
2638	0	753	716	637	2093	
2639	0	753	715	636	2092	
2640	0	753	716	636	2093	
2641	0	752	716	636	2094	
2642	0	753	716	635	2095	
2643	0	753	716	635	2095	
2644	0	754	717	635	2097	
2645	0	754	715	635	2093	
2646	0	754	716	636	2097	
2647	0	756	716	634	2093	
2648	0	755	716	636	2093	
2649	0	755	717	636	2095	
2650	0	755	716	635	2093	
2651	0	754	716	635	2096	
2652	0	754	716	635	2096	
2653	0	755	716	635	2096	
2654	0	755	716	635	2095	
2655	0	756	717	636	2096	
2656	0	755	716	635	2092	
2657	0	754	716	636	2093	
2658	0	755	716	636	2095	
2659	0	755	715	635	2091	
2660	0	754	715	635	2089	
2661	0	754	716	635	2089	
2662	0	754	716	635	2090	
2663	0	755	716	636	2092	
2664	0	755	716	636	2093	
2665	0	754	715	635	2091	
2666	0	754	716	636	2095	
2667	0	755	716	634	2093	
2668	0	754	716	637	2093	
2669	0	754	717	637	2095	
2670	0	753	716	635	2093	
2671	0	754	716	636	2098	
2672	0	755	717	636	2099	
2673	0	754	717	637	2097	
2674	0	755	717	637	2097	
2675	0	754	715	636	2093	
2676	0	754	715	636	2092	
2677	0	754	715	636	2093	
2678	0	755	716	636	2096	
2679	0	754	715	635	2095	
2680	0	755	716	636	2097	
2681	0	753	717	634	2093	
2682	0	752	716	635	2092	
2683	0	754	716	635	2094	
2684	0	753	715	634	2092	
2685	0	753	716	634	2092	
2686	0	752	716	634	2093	
2687	0	752	716	634	2093	
2688	0	753	716	634	2097	
2689	0	754	716	634	2097	
2690	0	754	715	634	2092	
2691	0	754	716	635	2092	
2692	0	755	716	636	2091	
2693	0	754	716	636	2093	
2694	0	755	716	636	2095	
2695	0	754	715	636	2094	
2696	0	754	715	637	2092	
2697	0	755	716	637	2091	
2698	0	754	716	636	2089	
2699	0	755	715	636	2091	
2700	0	755	717	638	2092	
2701	0	755	715	637	2088	
2702	0	754	716	637	2090	
2703	0	756	717	637	2093	
2704	0	754	716	635	2090	
2705	0	753	716	635	2087	
2706	0	753	716	635	2091	
2707	0	753	717	635	2093	
2708	0	753	716	633	2092	
2709	0	754	716	633	2092	
2710	0	754	716	634	2090	
2711	0	754	717	635	2091	
2712	0	755	716	637	2088	
2713	0	755	716	635	2089	
2714	0	755	717	636	2092	
2715	0	755	717	637	2091	
2716	0	755	717	637	2089	
2717	0	754	715	636	2086	
2718	0	754	716	636	2086	
2719	0	754	715	636	2088	
2720	0	754	716	637	2089	
2721	0	754	716	637	2089	
2722	0	754	716	636	2088	
2723	0	753	716	637	2088	
2724	0	754	716	634	2090	
2725	0	753	716	634	2087	
2726	0	753	717	635	2088	
2727	0	754	717	635	2089	
2728	0	754	717	635	2089	
2729	0	755	717	634	2090	
2730	0	754	716	634	2088	
2731	0	754	716	635	2088	
2732	0	754	716	635	2085	
2733	0	755	716	634	2084	
2734	0	755	717	635	2087	
2735	0	754	717	636	2089	
2736	0	754	717	636	2090	
2737	0	755	716	636	2091	
2738	0	756	716	636	2089	
2739	0	755	717	636	2088	
2740	0	755	716	636	2086	
2741	0	755	717	637	2089	
2742	0	754	717	637	2087	
2743	0	755	717	636	2088	
2744	0	755	717	635	2084	
2745	0	755	717	635	2087	
2746	0	755	717	635	2089	
2747	0	756	717	634	2089	
2748	0	755	717	635	2086	
2749	0	755	717	634	2086	
2750	0	754	717	634	2086	
2751	0	754	718	634	2086	
2752	0	752	717	633	2083	
2753	0	753	717	634	2087	
2754	0	753	718	633	2087	
2755	0	754	718	633	2087	
2756	0	754	717	634	2085	
2757	0	754	718	634	2086	
2758	0	754	717	634	2086	
2759	0	754	717	633	2083	
2760	0	754	717	633	2082	
2761	0	754	717	633	2080	
2762	0	755	717	633	2081	
2763	0	755	717	634	2081	
2764	0	755	716	633	2082	
2765	0	756	718	635	2081	
2766	0	755	717	636	2081	
2767	0	755	718	635	2079	
2768	0	754	717	636	2076	
2769	0	755	717	636	2080	
2770	0	754	716	635	2081	
2771	0	754	717	637	2084	
2772	0	755	718	637	2083	
2773	0	754	716	637	2077	
2774	0	756	717	637	2080	
2775	0	755	717	637	2080	
2776	0	755	716	636	2075	
2777	0	755	716	636	2076	
2778	0	754	716	637	2076	
2779	0	755	717	637	2080	
2780	0	754	717	637	2079	
2781	0	753	716	636	2076	
2782	0	753	716	636	2076	
2783	0	755	717	637	2080	
2784	0	755	717	637	2079	
2785	0	754	716	636	2076	
2786	0	754	717	636	2077	
2787	0	754	717	636	2077	
2788	0	753	717	636	2074	
2789	0	752	716	635	2079	
2790	0	754	717	635	2082	
2791	0	753	716	634	2079	
2792	0	753	716	635	2080	
2793	0	754	717	635	2080	
2794	0	754	717	635	2081	
2795	0	753	717	634	2076	
2796	0	753	717	634	2076	
2797	0	753	717	634	2076	
2798	0	755	717	634	2076	
2799	0	754	717	634	2077	
2800	0	756	717	636	2078	
2801	0	756	717	636	2078	
2802	0	755	716	635	2076	
2803	0	756	716	636	2074	
2804	0	756	717	636	2076	
2805	0	755	716	635	2073	
2806	0	757	716	635	2074	
2807	0	755	717	636	2076	
2808	0	755	716	637	2075	
2809	0	754	716	636	2074	
2810	0	755	716	636	2071	
2811	0	754	716	636	2072	
2812	0	754	717	635	2074	
2813	0	753	717	636	2076	
2814	0	754	717	636	2080	
2815	0	754	716	635	2075	
2816	0	753	717	636	2073	
2817	0	754	718	636	2072	
2818	0	754	717	636	2071	
2819	0	755	717	636	2073	
2820	0	754	716	635	2070	
2821	0	753	716	635	2073	
2822	0	754	717	635	2072	
2823	0	754	717	634	2069	
2824	0	753	716	634	2070	
2825	0	754	716	634	2069	
2826	0	753	716	635	2071	
2827	0	752	716	635	2068	
2828	0	753	716	636	2066	
2829	0	752	716	634	2070	
2830	0	752	716	634	2072	
2831	0	752	717	634	2073	
2832	0	753	717	635	2074	
2833	0	752	717	635	2073	
2834	0	752	716	635	2069	
2835	0	753	717	636	2070	
2836	0	753	717	636	2067	
2837	0	752	716	634	2064	
2838	0	754	717	635	2068	
2839	0	754	717	635	2068	
2840	0	755	717	635	2067	
2841	0	754	717	634	2066	
2842	0	754	717	635	2066	
2843	0	755	717	635	2067	
2844	0	754	719	634	2064	
2845	0	755	717	635	2065	
2846	0	754	716	634	2063	
2847	0	754	716	635	2066	
2848	0	756	717	635	2068	
2849	0	754	717	633	2067	
2850	0	755	718	634	2067	
2851	0	755	717	634	2061	
2852	0	753	717	634	2061	
2853	0	755	717	634	2064	
2854	0	755	717	634	2067	
2855	0	755	718	634	2071	
2856	0	754	716	634	2064	
2857	0	753	716	634	2064	
2858	0	754	717	635	2068	
2859	0	754	716	635	2065	
2860	0	755	717	636	2065	
2861	0	756	716	635	2061	
2862	0	755	716	636	2060	
2863	0	755	716	637	2057	
2864	0	755	716	636	2059	
2865	0	756	717	637	2061	
2866	0	754	716	635	2062	
2867	0	752	716	635	2063	
2868	0	754	717	636	2063	
2869	0	754	716	635	2062	
2870	0	755	716	636	2065	
2871	0	757	716	635	2064	
2872	0	754	717	635	2064	
2873	0	754	717	635	2067	
2874	0	753	717	634	2066	
2875	0	755	717	634	2060	
2876	0	755	717	634	2063	
2877	0	755	718	635	2059	
2878	0	753	717	635	2056	
2879	0	755	717	635	2059	
2880	0	754	717	635	2058	
2881	0	755	717	634	2058	
2882	0	755	717	635	2060	
2883	0	755	717	635	2059	
2884	0	755	716	636	2058	
2885	0	756	717	636	2057	
2886	0	757	716	634	2055	
2887	0	754	717	635	2056	
2888	0	755	717	636	2062	
2889	0	754	716	635	2060	
2890	0	754	717	635	2058	
2891	0	753	717	634	2059	
2892	0	754	717	635	2056	
2893	0	754	718	635	2059	
2894	0	754	717	635	2057	
2895	0	755	717	634	2058	
2896	0	755	716	634	2054	
2897	0	755	717	634	2050	
2898	0	756	717	635	2048	
2899	0	757	717	636	2051	
2900	0	756	716	634	2049	
2901	0	755	717	633	2056	
2902	0	756	717	636	2056	
2903	0	756	716	637	2055	
2904	0	757	717	637	2055	
2905	0	757	717	637	2055	
2906	0	756	716	636	2054	
2907	0	756	716	637	2057	
2908	0	756	716	637	2058	
2909	0	756	717	638	2061	
2910	0	755	717	637	2060	
2911	0	753	716	637	2055	
2912	0	754	716	637	2057	
2913	0	754	717	637	2061	
2914	0	754	717	637	2063	
2915	0	753	716	636	2057	
2916	0	753	716	634	2055	
2917	0	752	716	635	2056	
2918	0	753	716	637	2056	
2919	0	753	716	634	2057	
2920	0	754	716	634	2055	
2921	0	754	716	634	2052	
2922	0	754	716	634	2052	
2923	0	754	717	634	2051	
2924	0	755	717	635	2054	
2925	0	755	717	636	2055	
2926	0	755	716	635	2055	
2927	0	754	716	636	2056	
2928	0	755	717	637	2053	
2929	0	755	717	637	2052	
2930	0	755	716	635	2050	
2931	0	754	716	634	2054	
2932	0	755	718	636	2054	
2933	0	756	718	636	2057	
2934	0	755	717	634	2056	
2935	0	755	718	634	2055	
2936	0	755	716	634	2053	
2937	0	754	716	634	2052	
2938	0	754	717	635	2050	
2939	0	755	717	633	2049	
2940	0	755	717	634	2050	
2941	0	755	715	634	2047	
2942	0	755	717	634	2051	
2943	0	755	717	636	2053	
2944	0	753	717	635	2050	
2945	0	754	717	636	2050	
2946	0	757	716	636	2049	
2947	0	754	716	637	2049	
2948	0	754	716	638	2054	
2949	0	754	716	636	2055	
2950	0	755	717	637	2057	
2951	0	757	716	636	2053	
2952	0	754	716	637	2050	
2953	0	754	717	637	2049	
2954	0	754	717	635	2051	
2955	0	756	717	635	2054	
2956	0	758	717	634	2047	
2957	0	755	717	634	2047	
2958	0	756	717	635	2050	
2959	0	754	717	633	2050	
2960	0	756	718	634	2051	
2961	0	755	719	633	2048	
2962	0	754	716	634	2046	
2963	0	754	717	635	2045	
2964	0	754	716	634	2044	
2965	0	754	716	635	2039	
2966	0	753	716	635	2042	
2967	0	754	716	635	2040	
2968	0	754	717	636	2038	
2969	0	753	716	635	2030	
2970	0	753	716	635	2027	
2971	0	753	716	634	2027	
2972	0	753	717	636	2030	
2973	0	753	715	636	2029	
2974	0	754	716	636	2031	
2975	0	753	715	635	2028	
2976	0	753	716	634	2026	
2977	0	755	716	636	2023	
2978	0	755	716	636	2020	
2979	0	756	717	636	2022	
2980	0	755	716	635	2020	
2981	0	755	715	634	2022	
2982	0	755	717	636	2018	
2983	0	754	716	635	2020	
2984	0	755	717	636	2022	
2985	0	754	716	635	2019	
2986	0	754	716	634	2022	
2987	0	755	716	637	2019	
2988	0	755	719	637	2015	
2989	0	754	716	637	2018	
2990	0	754	715	636	2015	
2991	0	753	715	636	2013	
2992	0	753	716	636	2014	
2993	0	754	716	637	2012	
2994	0	754	717	637	2012	
2995	0	753	716	635	2007	
2996	0	753	716	634	2005	
2997	0	753	716	634	2003	
2998	0	754	717	635	2006	
2999	0	753	717	634	2006	
3000	0	752	717	633	2003	
3001	0	752	717	633	2001	
3002	0	753	717	634	2001	
3003	0	754	717	634	2003	
3004	0	754	717	635	2006	
3005	0	753	717	634	2007	
3006	0	754	716	633	2016	
3007	0	754	718	635	2019	
3008	0	753	717	634	2017	
3009	0	753	717	634	2019	
3010	0	754	718	636	2021	
3011	0	754	717	636	2021	
3012	0	753	716	636	2018	
3013	0	752	717	636	2016	
3014	0	754	717	636	2017	
3015	0	753	716	635	2014	
3016	0	752	716	635	2012	
3017	0	753	716	636	2013	
3018	0	752	716	635	2015	
3019	0	753	717	634	2018	
3020	0	753	717	634	2020	
3021	0	754	717	633	2021	
3022	0	754	717	635	2021	
3023	0	754	717	635	2022	
3024	0	756	717	635	2025	
3025	0	756	717	635	2024	
3026	0	756	716	635	2028	
3027	0	756	717	636	2034	
3028	0	755	717	637	2037	
3029	0	755	716	637	2042	
3030	0	756	716	637	2041	
3031	0	755	716	637	2043	
3032	0	755	716	638	2045	
3033	0	754	716	638	2050	
3034	0	752	716	636	2053	
3035	0	753	716	636	2055	
3036	0	753	716	635	2052	
3037	0	753	716	635	2055	
3038	0	752	717	635	2057	
3039	0	753	717	635	2063	
3040	0	753	717	634	2063	
3041	0	754	716	633	2064	
3042	0	753	717	634	2064	
3043	0	753	717	634	2066	
3044	0	754	717	633	2070	
3045	0	754	717	634	2072	
3046	0	755	716	633	2078	
3047	0	756	717	636	2077	
3048	0	754	716	636	2074	
3049	0	754	716	636	2073	
3050	0	754	716	636	2076	
3051	0	754	716	636	2076	
3052	0	755	716	637	2077	
3053	0	755	716	637	2076	
3054	0	754	716	636	2074	
3055	0	754	716	636	2073	
3056	0	754	716	636	2074	
3057	0	754	716	636	2073	
3058	0	753	717	637	2072	
3059	0	753	717	636	2073	
3060	0	753	717	635	2073	
3061	0	753	716	635	2074	
3062	0	753	716	635	2075	
3063	0	753	717	636	2075	
3064	0	754	717	634	2074	
3065	0	754	717	635	2072	
3066	0	754	716	635	2074	
3067	0	753	717	635	2077	
3068	0	754	717	636	2076	
3069	0	754	716	635	2075	
3070	0	754	716	635	2074	
3071	0	754	716	636	2073	
3072	0	755	717	636	2074	
3073	0	754	717	636	2071	
3074	0	754	716	634	2075	
3075	0	755	718	635	2076	
3076	0	752	717	634	2068	
3077	0	755	717	634	2068	
3078	0	755	718	635	2071	
3079	0	754	717	633	2068	
3080	0	754	717	634	2067	
3081	0	754	716	633	2069	
3082	0	755	718	634	2067	
3083	0	753	717	633	2063	
3084	0	753	717	632	2065	
3085	0	753	718	632	2066	
3086	0	753	717	632	2069	
3087	0	753	718	632	2067	
3088	0	755	718	634	2067	
3089	0	754	717	633	2067	
3090	0	755	717	634	2067	
3091	0	755	717	634	2070	
3092	0	754	717	635	2071	
3093	0	754	717	635	2071	
3094	0	756	718	636	2072	
3095	0	755	717	635	2064	
3096	0	755	717	636	2064	
3097	0	756	718	636	2062	
3098	0	755	718	636	2057	
3099	0	755	718	636	2055	
3100	0	754	717	635	2048	
3101	0	754	716	635	2041	
3102	0	755	716	635	2036	
3103	0	754	717	635	2031	
3104	0	752	716	634	2021	
3105	0	752	716	634	2012	
3106	0	752	716	634	2007	
3107	0	753	716	634	2003	
3108	0	753	717	634	2003	
3109	0	755	717	634	1996	
3110	0	754	716	634	1981	
3111	0	754	716	634	1970	
3112	0	755	717	635	1951	
3113	0	754	717	635	1926	
3114	0	755	717	636	1904	
3115	0	755	716	636	1881	
3116	0	754	715	636	1854	
3117	0	757	716	636	1833	
3118	0	756	716	637	1819	
3119	0	754	716	636	1804	
3120	0	753	716	636	1794	
3121	0	753	716	636	1791	
3122	0	753	716	636	1795	
3123	0	754	717	637	1810	
3124	0	754	716	635	1827	
3125	0	753	716	636	1847	
3126	0	753	716	636	1870	
3127	0	753	717	636	1887	
3128	0	752	717	635	1896	
3129	0	753	717	634	1906	
3130	0	754	717	635	1914	
3131	0	755	717	634	1919	
3132	0	753	717	634	1924	
3133	0	753	717	635	1934	
3134	0	754	716	635	1947	
3135	0	756	717	636	1969	
3136	0	757	716	635	1987	
3137	0	755	716	636	2022	
3138	0	756	717	636	2068	
3139	0	754	716	635	2125	
3140	0	754	717	637	2192	
3141	0	757	716	636	2259	
3142	0	754	716	636	2329	
3143	0	754	716	636	2386	
3144	0	754	716	635	2431	
3145	0	756	717	636	2465	
3146	0	758	716	635	2481	
3147	0	755	716	635	2485	
3148	0	755	717	635	2480	
3149	0	754	716	634	2462	
3150	0	755	717	636	2447	
3151	0	755	717	634	2426	
3152	0	755	715	635	2409	
3153	0	755	717	635	2389	
3154	0	754	716	634	2364	
3155	0	754	717	635	2346	
3156	0	754	717	634	2320	
3157	0	753	716	634	2300	
3158	0	754	717	635	2285	
3159	0	753	716	633	2263	
3160	0	755	717	634	2246	
3161	0	755	717	633	2227	
3162	0	755	716	632	2205	
3163	0	754	717	632	2186	
3164	0	755	717	632	2167	
3165	0	755	718	633	2150	
3166	0	756	718	633	2131	
3167	0	754	717	632	2108	
3168	0	754	717	633	2091	
3169	0	756	717	634	2079	
3170	0	754	716	633	2061	
3171	0	754	718	634	2049	
3172	0	755	716	635	2039	
3173	0	755	717	636	2031	
3174	0	754	716	635	2023	
3175	0	755	717	637	2022	
3176	0	754	717	634	2016	
3177	0	754	717	636	2015	
3178	0	754	717	636	2016	
3179	0	753	716	634	2012	
3180	0	754	717	635	2017	
3181	0	753	718	634	2016	
3182	0	753	717	633	2015	
3183	0	753	717	634	2015	
3184	0	754	718	634	2017	
3185	0	756	718	634	2016	
3186	0	755	717	634	2015	
3187	0	756	716	634	2017	
3188	0	756	718	635	2019	
3189	0	755	716	634	2015	
3190	0	756	718	636	2013	
3191	0	757	716	636	2011	
3192	0	755	716	637	2011	
3193	0	755	717	637	2016	
3194	0	754	716	637	2013	
3195	0	753	717	637	2014	
3196	0	753	718	637	2010	
3197	0	754	716	637	2010	
3198	0	754	717	637	2012	
3199	0	752	716	636	2009	
3200	0	752	717	636	2005	
3201	0	753	716	635	2007	
3202	0	753	717	636	2006	
3203	0	752	716	635	2004	
3204	0	754	717	635	2007	
3205	0	753	716	634	2004	
3206	0	754	717	634	2008	
3207	0	756	716	634	2004	
3208	0	755	717	634	2007	
3209	0	754	716	634	2005	
3210	0	753	717	636	2010	
3211	0	757	716	635	2008	
3212	0	755	716	635	2008	
3213	0	754	716	636	2008	
3214	0	755	717	636	2007	
3215	0	754	716	635	2005	
3216	0	754	717	636	2003	
3217	0	754	717	636	2002	
3218	0	754	717	636	2002	
3219	0	755	717	635	2003	
3220	0	754	716	634	2000	
3221	0	754	716	633	2001	
3222	0	755	717	633	2001	
3223	0	753	717	633	2000	
3224	0	755	718	633	2000	
3225	0	754	717	633	1996	
3226	0	756	717	633	1999	
3227	0	755	717	633	2002	
3228	0	755	717	634	2003	
3229	0	756	718	634	2005	
3230	0	755	717	634	2003	
3231	0	756	717	634	2000	
3232	0	756	717	635	1999	
3233	0	756	718	636	2001	
3234	0	755	716	634	2002	
3235	0	754	717	636	2005	
3236	0	755	717	635	1998	
3237	0	754	716	635	1998	
3238	0	755	718	635	2000	
3239	0	753	717	633	1996	
3240	0	754	718	634	1999	
3241	0	754	718	634	1998	
3242	0	754	716	632	1999	
3243	0	753	717	632	1999	
3244	0	754	717	632	2000	
3245	0	752	716	631	1996	
3246	0	752	717	632	2000	
3247	0	754	718	632	2003	
3248	0	754	717	633	2002	
3249	0	754	717	632	1998	
3250	0	753	717	634	2000	
3251	0	754	717	635	1997	
3252	0	754	717	636	1996	
3253	0	754	716	636	1994	
3254	0	754	716	636	1997	
3255	0	752	717	637	1998	
3256	0	755	717	638	1992	
3257	0	755	717	637	1991	
3258	0	754	716	637	1991	
3259	0	754	716	636	1990	
3260	0	752	717	637	1994	
3261	0	754	717	637	1993	
3262	0	754	717	637	1992	
3263	0	753	716	636	1990	
3264	0	754	716	635	1989	
3265	0	753	717	636	1993	
3266	0	754	717	636	1996	
3267	0	754	717	635	1996	
3268	0	754	716	635	1990	
3269	0	754	716	634	1989	
3270	0	754	716	636	1988	
3271	0	754	716	637	1990	
3272	0	756	716	638	1991	
3273	0	755	716	638	1991	
3274	0	755	716	636	1988	
3275	0	753	716	637	1986	
3276	0	754	716	638	1989	
3277	0	755	717	638	1989	
3278	0	756	717	638	1988	
3279	0	756	716	637	1986	
3280	0	752	716	638	1988	
3281	0	755	716	637	1986	
3282	0	754	716	637	1986	
3283	0	753	716	636	1985	
3284	0	754	717	636	1986	
3285	0	754	717	637	1984	
3286	0	755	717	636	1985	
3287	0	754	717	634	1982	
3288	0	754	717	635	1986	
3289	0	755	717	635	1987	
3290	0	755	718	635	1985	
3291	0	756	718	635	1986	
3292	0	756	717	634	1982	
3293	0	756	717	634	1983	
3294	0	756	718	635	1986	
3295	0	755	718	635	1989	
3296	0	756	717	635	1983	
3297	0	756	717	634	1982	
3298	0	755	717	634	1983	
3299	0	756	718	635	1986	
3300	0	755	718	635	1986	
3301	0	756	718	635	1986	
3302	0	756	717	635	1982	
3303	0	754	717	635	1982	
3304	0	754	718	635	1982	
3305	0	754	718	635	1983	
3306	0	755	718	635	1988	
3307	0	756	716	634	1985	
3308	0	754	717	634	1985	
3309	0	755	717	635	1984	
3310	0	755	717	634	1983	
3311	0	755	718	635	1983	
3312	0	756	716	633	1983	
3313	0	754	717	634	1984	
3314	0	756	718	635	1985	
3315	0	756	718	635	1984	
3316	0	756	718	635	1980	
3317	0	755	716	634	1977	
3318	0	755	717	635	1979	
3319	0	756	717	635	1979	
3320	0	755	718	635	1979	
3321	0	754	717	635	1979	
3322	0	755	716	634	1977	
3323	0	754	716	635	1979	
3324	0	755	717	636	1980	
3325	0	755	717	635	1980	
3326	0	754	717	635	1980	
3327	0	753	715	634	1977	
3328	0	754	717	635	1979	
3329	0	754	716	634	1979	
3330	0	752	717	635	1981	
3331	0	754	719	635	1978	
3332	0	754	715	634	1977	
3333	0	755	717	635	1976	
3334	0	755	718	635	1976	
3335	0	755	717	635	1973	
3336	0	756	717	635	1971	
3337	0	755	716	635	1972	
3338	0	756	717	636	1975	
3339	0	757	717	636	1974	
3340	0	756	716	635	1973	
3341	0	756	718	635	1973	
3342	0	756	716	635	1974	
3343	0	756	717	636	1974	
3344	0	756	717	636	1973	
3345	0	755	716	636	1969	
3346	0	754	716	636	1971	
3347	0	755	717	637	1976	
3348	0	754	716	637	1972	
3349	0	753	716	636	1972	
3350	0	751	717	636	1971	
3351	0	754	717	636	1971	
3352	0	753	716	635	1971	
3353	0	754	716	635	1969	
3354	0	753	715	634	1968	
3355	0	752	716	634	1969	
3356	0	755	716	634	1966	
3357	0	755	716	633	1962	
3358	0	755	717	633	1962	
3359	0	755	716	634	1962	
3360	0	754	717	635	1965	
3361	0	756	717	635	1965	
3362	0	756	716	635	1960	
3363	0	756	717	635	1960	
3364	0	756	716	635	1959	
3365	0	754	717	636	1960	
3366	0	757	717	636	1962	
3367	0	755	715	636	1961	
3368	0	755	717	636	1961	
3369	0	754	716	635	1960	
3370	0	754	716	635	1958	
3371	0	755	716	635	1959	
3372	0	756	716	635	1960	
3373	0	755	715	636	1963	
3374	0	754	715	635	1961	
3375	0	753	715	635	1959	
3376	0	754	715	635	1953	
3377	0	755	715	635	1954	
3378	0	753	716	636	1954	
3379	0	753	715	636	1952	
3380	0	753	715	635	1949	
3381	0	753	715	636	1948	
3382	0	754	716	636	1948	
3383	0	754	716	636	1947	
3384	0	754	716	638	1944	
3385	0	753	715	636	1942	
3386	0	753	716	636	1945	
3387	0	754	716	636	1944	
3388	0	754	716	637	1944	
3389	0	754	716	636	1941	
3390	0	753	715	635	1942	
3391	0	755	715	635	1943	
3392	0	755	715	634	1943	
3393	0	753	716	635	1943	
3394	0	753	716	634	1938	
3395	0	752	716	634	1938	
3396	0	752	716	633	1936	
3397	0	753	716	633	1935	
3398	0	753	716	634	1936	
3399	0	752	716	634	1937	
3400	0	753	716	633	1936	
3401	0	753	716	634	1937	
3402	0	755	716	635	1939	
3403	0	755	716	636	1939	
3404	0	755	716	638	1936	
3405	0	754	715	635	1935	
3406	0	756	716	635	1936	
3407	0	755	715	635	1939	
3408	0	754	717	636	1939	
3409	0	754	717	636	1940	
3410	0	754	716	636	1939	
3411	0	753	715	636	1933	
3412	0	753	716	636	1936	
3413	0	753	716	637	1935	
3414	0	753	716	639	1936	
3415	0	753	715	636	1936	
3416	0	754	715	636	1931	
3417	0	753	717	636	1931	
3418	0	754	717	636	1934	
3419	0	755	717	636	1935	
3420	0	754	717	636	1936	
3421	0	754	716	635	1933	
3422	0	754	715	635	1935	
3423	0	754	716	635	1936	
3424	0	754	717	635	1936	
3425	0	754	717	635	1940	
3426	0	756	717	636	1944	
3427	0	755	718	636	1944	
3428	0	753	716	636	1940	
3429	0	755	717	637	1942	
3430	0	755	718	636	1943	
3431	0	755	717	636	1945	
3432	0	755	716	635	1943	
3433	0	755	717	636	1945	
3434	0	757	716	635	1944	
3435	0	754	718	636	1945	
3436	0	755	717	636	1943	
3437	0	754	717	635	1944	
3438	0	755	717	636	1944	
3439	0	754	716	635	1942	
3440	0	752	717	636	1945	
3441	0	755	717	636	1942	
3442	0	755	716	635	1945	
3443	0	753	716	636	1947	
3444	0	754	716	635	1947	
3445	0	754	717	636	1949	
3446	0	755	720	635	1950	
3447	0	754	716	635	1953	
3448	0	755	717	636	1960	
3449	0	755	716	634	1960	
3450	0	755	717	634	1961	
3451	0	755	717	635	1964	
3452	0	756	717	635	1965	
3453	0	754	716	634	1964	
3454	0	756	718	635	1967	
3455	0	756	717	634	1969	
3456	0	755	717	635	1966	
3457	0	756	718	636	1969	
3458	0	755	716	636	1969	
3459	0	755	717	637	1973	
3460	0	755	718	636	1976	
3461	0	753	716	636	1974	
3462	0	754	718	636	1976	
3463	0	755	717	636	1981	
3464	0	754	716	635	1982	
3465	0	752	717	636	1989	
3466	0	755	717	635	1992	
3467	0	755	717	635	1994	
3468	0	753	716	635	1998	
3469	0	754	717	635	2000	
3470	0	753	717	634	2001	
3471	0	754	717	635	2003	
3472	0	754	718	635	2003	
3473	0	756	718	635	2006	
3474	0	757	717	635	2007	
3475	0	755	716	634	2012	
3476	0	755	717	634	2010	
3477	0	755	718	635	2016	
3478	0	755	717	635	2019	
3479	0	757	716	635	2021	
3480	0	754	716	636	2027	
3481	0	755	718	636	2027	
3482	0	755	717	636	2029	
3483	0	755	717	637	2034	
3484	0	753	716	636	2035	
3485	0	752	717	637	2040	
3486	0	754	717	637	2044	
3487	0	753	717	637	2048	
3488	0	753	715	637	2050	
3489	0	754	716	637	2051	
3490	0	754	716	636	2052	
3491	0	754	716	636	2054	
3492	0	754	715	636	2062	
3493	0	753	717	636	2065	
3494	0	754	717	636	2069	
3495	0	753	716	634	2071	
3496	0	753	716	633	2070	
3497	0	754	715	634	2075	
3498	0	753	716	634	2078	
3499	0	753	716	634	2078	
3500	0	754	716	633	2081	
3501	0	754	716	633	2083	
3502	0	755	717	634	2088	
3503	0	753	716	633	2089	
3504	0	754	716	633	2089	
3505	0	754	716	634	2090	
3506	0	754	716	634	2091	
3507	0	755	716	635	2094	
3508	0	752	716	634	2094	
3509	0	754	717	635	2100	
3510	0	754	717	635	2102	
3511	0	752	716	634	2101	
3512	0	754	715	635	2104	
3513	0	752	716	635	2103	
3514	0	752	716	635	2103	
3515	0	753	717	636	2107	
3516	0	754	717	636	2106	
3517	0	753	716	635	2104	
3518	0	753	716	636	2108	
3519	0	754	716	636	2108	
3520	0	754	716	635	2110	
3521	0	754	717	634	2110	
3522	0	755	715	635	2111	
3523	0	754	715	635	2111	
3524	0	755	717	636	2113	
3525	0	756	717	636	2113	
3526	0	754	716	635	2112	
3527	0	754	717	636	2116	
3528	0	754	716	637	2119	
3529	0	754	716	636	2119	
3530	0	754	717	636	2117	
3531	0	753	717	634	2114	
3532	0	754	717	635	2115	
3533	0	753	715	635	2118	
3534	0	753	716	635	2116	
3535	0	753	717	636	2120	
3536	0	754	717	635	2117	
3537	0	754	717	635	2118	
3538	0	753	716	634	2117	
3539	0	755	717	634	2118	
3540	0	755	717	634	2115	
3541	0	756	717	634	2115	
3542	0	755	716	634	2112	
3543	0	754	716	634	2114	
3544	0	754	717	634	2113	
3545	0	754	718	635	2116	
3546	0	755	718	635	2118	
3547	0	756	718	635	2115	
3548	0	755	716	635	2113	
3549	0	755	716	635	2112	
3550	0	755	717	635	2118	
3551	0	756	717	635	2116	
3552	0	757	717	635	2116	
3553	0	755	717	634	2113	
3554	0	756	718	635	2111	
3555	0	755	718	635	2111	
3556	0	755	717	635	2110	
3557	0	754	717	635	2105	
3558	0	755	717	636	2106	
3559	0	754	716	635	2103	
3560	0	755	717	636	2107	
3561	0	756	717	639	2105	
3562	0	755	717	635	2105	
3563	0	756	716	637	2106	
3564	0	756	716	635	2100	
3565	0	756	717	636	2102	
3566	0	757	717	637	2103	
3567	0	756	716	637	2104	
3568	0	755	715	636	2103	
3569	0	756	716	636	2100	
3570	0	755	717	636	2102	
3571	0	756	717	636	2100	
3572	0	756	717	636	2100	
3573	0	754	716	635	2099	
3574	0	755	717	636	2103	
3575	0	755	716	635	2097	
3576	0	754	717	635	2093	
3577	0	755	717	636	2091	
3578	0	754	715	635	2092	
3579	0	756	717	635	2092	
3580	0	756	717	635	2092	
3581	0	755	717	635	2095	
3582	0	754	717	635	2092	
3583	0	755	716	636	2094	
3584	0	754	716	636	2092	
3585	0	755	716	636	2092	
3586	0	754	715	635	2092	
3587	0	754	717	635	2094	
3588	0	755	717	636	2096	
3589	0	754	715	635	2092	
3590	0	754	716	635	2091	
3591	0	754	715	635	2087	
3592	0	754	716	634	2088	
3593	0	754	715	635	2089	
3594	0	754	715	634	2090	
3595	0	754	716	634	2089	
3596	0	754	716	634	2084	
3597	0	754	717	634	2085	
3598	0	753	716	634	2086	
3599	0	754	716	634	2084	
3600	0	753	716	634	2084	
3601	0	753	715	634	2083	
3602	0	753	716	634	2084	
3603	0	752	715	634	2085	
3604	0	753	717	635	2086	
3605	0	753	716	634	2084	
3606	0	753	716	633	2087	
3607	0	753	717	635	2089	
3608	0	752	716	634	2085	
3609	0	753	717	635	2086	
3610	0	752	717	635	2082	
3611	0	754	716	635	2084	
3612	0	753	717	635	2085	
3613	0	754	716	636	2085	
3614	0	754	716	636	2084	
3615	0	755	716	637	2080	
3616	0	755	715	637	2082	
3617	0	755	716	637	2082	
3618	0	754	716	637	2082	
3619	0	755	716	636	2079	
3620	0	754	716	636	2078	
3621	0	754	716	636	2078	
3622	0	754	717	635	2081	
3623	0	753	716	635	2081	
3624	0	754	716	635	2080	
3625	0	754	716	635	2079	
3626	0	754	716	635	2080	
3627	0	755	717	635	2082	
3628	0	754	716	635	2087	
3629	0	755	716	635	2086	
3630	0	755	717	636	2090	
3631	0	756	717	637	2087	
3632	0	755	716	636	2085	
3633	0	756	717	636	2086	
3634	0	756	716	635	2083	
3635	0	755	716	636	2089	
3636	0	755	716	637	2081	
3637	0	755	717	636	2081	
3638	0	756	717	636	2084	
3639	0	754	716	636	2081	
3640	0	755	717	637	2084	
3641	0	755	717	639	2082	
3642	0	755	716	635	2082	
3643	0	754	716	636	2083	
3644	0	754	716	636	2083	
3645	0	754	717	637	2086	
3646	0	755	717	638	2087	
3647	0	755	716	635	2088	
3648	0	754	715	635	2088	
3649	0	756	717	635	2088	
3650	0	754	717	634	2086	
3651	0	754	716	634	2088	
3652	0	755	717	635	2093	
3653	0	754	716	634	2092	
3654	0	754	716	634	2091	
3655	0	755	717	635	2093	
3656	0	756	719	634	2086	
3657	0	756	716	635	2086	
3658	0	756	717	635	2089	
3659	0	754	716	634	2084	
3660	0	754	715	635	2087	
3661	0	755	719	635	2083	
3662	0	755	717	635	2083	
3663	0	755	717	635	2087	
3664	0	753	716	635	2084	
3665	0	754	718	635	2087	
3666	0	754	717	638	2084	
3667	0	754	717	635	2083	
3668	0	754	716	635	2086	
3669	0	754	716	635	2089	
3670	0	753	715	635	2088	
3671	0	753	715	635	2089	
3672	0	753	716	635	2090	
3673	0	754	716	636	2090	
3674	0	755	716	636	2092	
3675	0	754	716	635	2089	
3676	0	754	717	635	2087	
3677	0	754	716	636	2088	
3678	0	755	717	637	2090	
3679	0	756	716	637	2089	
3680	0	754	715	636	2088	
3681	0	755	715	636	2088	
3682	0	756	716	636	2089	
3683	0	755	717	636	2090	
3684	0	756	717	635	2091	
3685	0	754	716	635	2088	
3686	0	755	716	634	2089	
3687	0	756	716	635	2093	
3688	0	755	718	635	2090	
3689	0	754	715	635	2090	
3690	0	754	714	636	2089	
3691	0	754	716	635	2088	
3692	0	752	716	635	2085	
3693	0	752	716	636	2087	
3694	0	754	716	637	2090	
3695	0	755	716	637	2090	
3696	0	754	715	636	2088	
3697	0	754	716	636	2091	
3698	0	754	715	636	2091	
3699	0	754	715	636	2089	
3700	0	754	714	637	2090	
3701	0	755	716	637	2089	
3702	0	755	715	635	2087	
3703	0	755	715	635	2088	
3704	0	756	716	636	2092	
3705	0	754	716	636	2093	
3706	0	754	717	635	2091	
3707	0	754	717	634	2088	
3708	0	754	716	635	2089	
3709	0	754	715	635	2088	
3710	0	754	716	635	2088	
3711	0	754	716	635	2088	
3712	0	755	716	636	2088	
3713	0	753	715	636	2089	
3714	0	753	715	636	2086	
3715	0	753	714	637	2089	
3716	0	753	716	638	2092	
3717	0	754	716	638	2090	
3718	0	754	715	637	2088	
3719	0	754	716	638	2089	
3720	0	754	716	637	2086	
3721	0	754	715	637	2089	
3722	0	754	719	637	2089	
3723	0	754	716	636	2090	
3724	0	754	716	635	2087	
3725	0	754	715	636	2089	
3726	0	755	716	634	2084	
3727	0	756	717	634	2085	
3728	0	757	717	635	2087	
3729	0	755	716	634	2085	
3730	0	755	716	634	2084	
3731	0	755	717	635	2084	
3732	0	755	718	635	2085	
3733	0	755	716	636	2087	
3734	0	755	716	636	2086	
3735	0	755	715	637	2090	
3736	0	756	717	637	2087	
3737	0	755	717	635	2087	
3738	0	755	717	637	2089	
3739	0	754	716	636	2086	
3740	0	754	716	636	2085	
3741	0	753	716	636	2083	
3742	0	754	716	635	2083	
3743	0	753	717	636	2084	
3744	0	753	717	635	2084	
3745	0	754	715	636	2090	
3746	0	755	717	634	2086	
3747	0	754	717	635	2087	
3748	0	755	716	635	2087	
3749	0	755	716	635	2086	
3750	0	756	714	635	2088	
3751	0	756	717	634	2085	
3752	0	756	716	634	2085	
3753	0	756	717	635	2087	
3754	0	755	716	635	2086	
3755	0	755	714	635	2087	
3756	0	756	719	635	2085	
3757	0	756	716	636	2086	
3758	0	756	717	637	2085	
3759	0	755	715	636	2082	
3760	0	754	714	637	2085	
3761	0	754	717	637	2082	
3762	0	754	716	636	2084	
3763	0	755	717	637	2086	
3764	0	754	716	636	2083	
3765	0	754	715	637	2085	
3766	0	754	717	635	2081	
3767	0	754	718	636	2082	
3768	0	754	716	635	2082	
3769	0	754	716	635	2081	
3770	0	754	715	635	2084	
3771	0	755	717	633	2081	
3772	0	754	717	633	2081	
3773	0	755	717	634	2084	
3774	0	754	716	633	2081	
3775	0	755	715	634	2083	
3776	0	756	717	634	2080	
3777	0	755	718	633	2080	
3778	0	754	717	633	2080	
3779	0	755	717	634	2085	
3780	0	755	717	634	2082	
3781	0	754	716	634	2083	
3782	0	755	717	635	2083	
3783	0	755	716	634	2082	
3784	0	754	718	635	2083	
3785	0	753	716	635	2079	
3786	0	753	717	634	2079	
3787	0	755	717	635	2081	
3788	0	754	716	635	2081	
3789	0	754	717	635	2080	
3790	0	753	716	634	2076	
3791	0	753	716	635	2075	
3792	0	753	718	635	2076	
3793	0	753	716	634	2078	
3794	0	754	716	634	2076	
3795	0	754	716	635	2075	
3796	0	755	716	635	2078	
3797	0	754	718	636	2079	
3798	0	754	716	636	2079	
3799	0	754	716	635	2076	
3800	0	754	716	636	2076	
3801	0	755	717	637	2075	
3802	0	755	718	636	2076	
3803	0	754	717	636	2077	
3804	0	754	716	635	2075	
3805	0	754	716	637	2074	
3806	0	754	715	636	2072	
3807	0	755	717	637	2075	
3808	0	754	716	636	2073	
3809	0	755	717	636	2075	
3810	0	757	715	635	2073	
3811	0	754	716	635	2074	
3812	0	755	718	635	2076	
3813	0	753	716	635	2076	
3814	0	754	716	634	2074	
3815	0	754	716	635	2074	
3816	0	753	716	635	2074	
3817	0	753	717	634	2075	
3818	0	753	717	633	2076	
3819	0	753	716	633	2074	
3820	0	753	716	634	2072	
3821	0	754	717	633	2072	
3822	0	754	717	633	2073	
3823	0	754	716	633	2073	
3824	0	753	717	633	2074	
3825	0	754	716	634	2073	
3826	0	754	717	634	2071	
3827	0	755	717	634	2070	
3828	0	755	718	635	2072	
3829	0	755	716	635	2071	
3830	0	754	715	636	2074	
3831	0	754	717	637	2074	
3832	0	754	717	636	2071	
3833	0	754	717	637	2074	
3834	0	754	716	637	2070	
3835	0	753	714	638	2072	
3836	0	754	717	638	2072	
3837	0	753	716	636	2071	
3838	0	755	716	638	2073	
3839	0	754	716	636	2070	
3840	0	755	715	637	2073	
3841	0	755	717	636	2076	
3842	0	754	716	636	2074	
3843	0	755	716	637	2076	
3844	0	755	716	636	2073	
3845	0	754	716	635	2070	
3846	0	754	716	635	2069	
3847	0	754	716	635	2071	
3848	0	755	717	636	2073	
3849	0	754	716	636	2072	
3850	0	754	715	635	2068	
3851	0	754	716	635	2069	
3852	0	754	716	637	2070	
3853	0	755	717	636	2069	
3854	0	753	717	636	2067	
3855	0	754	715	636	2068	
3856	0	753	715	636	2069	
3857	0	753	716	636	2070	
3858	0	753	716	636	2072	
3859	0	752	715	635	2069	
3860	0	753	714	636	2071	
3861	0	754	716	637	2067	
3862	0	753	716	633	2067	
3863	0	754	716	635	2069	
3864	0	754	716	633	2067	
3865	0	754	716	634	2071	
3866	0	754	717	636	2067	
3867	0	754	716	633	2065	
3868	0	755	716	634	2067	
3869	0	755	717	634	2067	
3870	0	754	715	633	2064	
3871	0	755	715	634	2066	
3872	0	756	716	635	2069	
3873	0	756	715	635	2067	
3874	0	756	717	636	2069	
3875	0	755	716	635	2066	
3876	0	754	717	636	2067	
3877	0	754	715	636	2067	
3878	0	754	716	637	2068	
3879	0	753	715	637	2065	
3880	0	752	713	637	2068	
3881	0	754	716	636	2067	
3882	0	752	716	635	2065	
3883	0	753	715	636	2066	
3884	0	754	716	636	2068	
3885	0	754	716	635	2066	
3886	0	754	716	636	2066	
3887	0	754	716	634	2063	
3888	0	755	716	636	2067	
3889	0	756	716	636	2067	
3890	0	756	716	636	2067	
3891	0	756	716	634	2065	
3892	0	756	716	636	2065	
3893	0	756	716	636	2064	
3894	0	755	715	635	2060	
3895	0	754	715	635	2060	
3896	0	754	715	636	2061	
3897	0	753	716	636	2060	
3898	0	753	715	636	2062	
3899	0	754	715	635	2064	
3900	0	754	714	635	2067	
3901	0	754	716	635	2066	
3902	0	754	717	635	2065	
3903	0	753	716	634	2062	
3904	0	754	717	635	2064	
3905	0	755	714	633	2060	
3906	0	752	716	634	2058	
3907	0	752	716	634	2058	
3908	0	752	714	635	2059	
3909	0	752	715	635	2058	
3910	0	752	716	635	2060	
3911	0	753	716	635	2060	
3912	0	754	716	636	2060	
3913	0	754	716	636	2061	
3914	0	754	716	636	2057	
3915	0	754	714	636	2060	
3916	0	755	717	635	2059	
3917	0	755	717	635	2059	
3918	0	756	717	637	2062	
3919	0	755	716	636	2057	
3920	0	754	716	636	2059	
3921	0	754	716	636	2060	
3922	0	755	717	636	2060	
3923	0	754	715	636	2061	
3924	0	756	716	637	2061	
3925	0	755	715	636	2058	
3926	0	754	716	636	2058	
3927	0	754	717	636	2060	
3928	0	754	715	636	2059	
3929	0	755	717	637	2060	
3930	0	755	716	636	2058	
3931	0	755	716	636	2058	
3932	0	756	716	637	2062	
3933	0	754	715	636	2060	
3934	0	754	715	636	2058	
3935	0	754	716	636	2060	
3936	0	755	716	634	2058	
3937	0	754	716	634	2056	
3938	0	755	717	635	2059	
3939	0	753	716	634	2056	
3940	0	753	716	635	2058	
3941	0	754	717	636	2054	
3942	0	754	717	634	2054	
3943	0	754	717	633	2057	
3944	0	753	716	633	2056	
3945	0	753	716	635	2060	
3946	0	755	717	637	2056	
3947	0	755	716	634	2055	
3948	0	755	717	635	2057	
3949	0	754	716	635	2055	
3950	0	755	716	635	2057	
3951	0	755	717	635	2056	
3952	0	755	716	636	2057	
3953	0	755	715	636	2057	
3954	0	755	716	636	2056	
3955	0	754	716	637	2058	
3956	0	755	717	635	2059	
3957	0	755	717	636	2058	
3958	0	756	717	636	2058	
3959	0	754	717	635	2054	
3960	0	754	717	636	2057	
3961	0	755	718	635	2056	
3962	0	754	717	634	2056	
3963	0	754	716	634	2058	
3964	0	754	716	634	2056	
3965	0	754	716	634	2057	
3966	0	754	717	634	2056	
3967	0	754	717	633	2053	
3968	0	754	715	634	2055	
3969	0	754	715	634	2054	
3970	0	754	716	635	2056	
3971	0	754	717	636	2056	
3972	0	754	716	636	2053	
3973	0	754	717	636	2056	
3974	0	753	716	636	2053	
3975	0	753	716	636	2053	
3976	0	754	716	636	2056	
3977	0	754	717	637	2057	
3978	0	754	715	637	2055	
3979	0	754	716	636	2056	
3980	0	754	716	637	2058	
3981	0	755	717	638	2055	
3982	0	754	716	635	2052	
3983	0	756	716	636	2054	
3984	0	755	715	634	2051	
3985	0	754	715	634	2050	
3986	0	754	716	635	2050	
3987	0	754	715	637	2049	
3988	0	755	716	637	2053	
3989	0	754	715	636	2049	
3990	0	754	715	637	2051	
3991	0	755	716	637	2048	
3992	0	753	715	638	2049	
3993	0	753	716	638	2051	
3994	0	752	715	636	2048	
3995	0	753	715	636	2048	
3996	0	754	716	636	2050	
3997	0	754	715	636	2050	
3998	0	754	714	635	2051	
3999	0	754	715	635	2048	
4000	0	754	716	635	2052	
4001	0	755	716	638	2050	
4002	0	755	716	635	2052	
4003	0	755	716	636	2055	
4004	0	755	715	635	2052	
4005	0	755	715	636	2051	
4006	0	755	716	636	2048	
4007	0	757	716	637	2050	
4008	0	756	714	636	2048	
4009	0	754	715	636	2047	
4010	0	754	715	636	2047	
4011	0	753	716	636	2047	
4012	0	754	716	637	2047	
4013	0	753	715	636	2048	
4014	0	754	715	637	2047	
4015	0	753	715	637	2047	
4016	0	753	715	636	2050	
4017	0	753	715	637	2049	
4018	0	752	715	635	2049	
4019	0	753	715	636	2048	
4020	0	753	715	636	2049	
4021	0	754	715	635	2049	
4022	0	754	716	635	2048	
4023	0	753	715	634	2047	
4024	0	754	715	634	2048	
4025	0	754	716	634	2048	
4026	0	755	716	635	2047	
4027	0	755	716	635	2047	
4028	0	754	715	634	2047	
4029	0	754	715	635	2043	
4030	0	754	716	635	2040	
4031	0	755	716	635	2037	
4032	0	754	716	636	2032	
4033	0	754	715	636	2030	
4034	0	755	716	637	2029	
4035	0	755	714	637	2024	
4036	0	754	715	637	2024	
4037	0	754	715	637	2022	
4038	0	754	715	637	2021	
4039	0	754	715	637	2018	
4040	0	754	715	636	2022	
4041	0	754	715	636	2021	
4042	0	754	715	636	2021	
4043	0	754	714	635	2019	
4044	0	754	715	635	2018	
4045	0	754	716	635	2021	
4046	0	755	716	633	2017	
4047	0	754	716	634	2017	
4048	0	755	717	634	2018	
4049	0	754	716	633	2014	
4050	0	753	716	634	2015	
4051	0	754	717	635	2010	
4052	0	753	716	634	2008	
4053	0	754	716	635	2008	
4054	0	753	715	634	2006	
4055	0	753	716	635	2008	
4056	0	754	716	636	2011	
4057	0	753	716	636	2010	
4058	0	753	716	636	2010	
4059	0	752	716	635	2006	
4060	0	753	715	636	2005	
4061	0	755	716	638	2001	
4062	0	754	716	636	2003	
4063	0	754	716	636	2004	
4064	0	753	715	635	2004	
4065	0	752	715	636	2009	
4066	0	754	716	635	2007	
4067	0	753	715	636	2010	
4068	0	755	716	635	2015	
4069	0	754	716	634	2014	
4070	0	754	716	635	2017	
4071	0	755	716	634	2016	
4072	0	754	716	635	2015	
4073	0	756	717	636	2017	
4074	0	755	716	635	2013	
4075	0	754	715	636	2013	
4076	0	755	716	636	2015	
4077	0	755	715	636	2014	
4078	0	755	714	636	2015	
4079	0	754	715	637	2014	
4080	0	753	716	637	2019	
4081	0	754	716	637	2022	
4082	0	754	716	638	2022	
4083	0	755	716	637	2026	
4084	0	753	716	636	2024	
4085	0	753	716	636	2026	
4086	0	753	716	636	2026	
4087	0	754	716	635	2028	
4088	0	753	716	634	2030	
4089	0	755	716	633	2031	
4090	0	754	716	633	2032	
4091	0	754	716	633	2032	
4092	0	755	717	634	2036	
4093	0	755	715	632	2036	
4094	0	757	716	635	2040	
4095	0	755	716	635	2039	
4096	0	755	716	635	2042	
4097	0	756	716	636	2046	
4098	0	754	716	635	2048	
4099	0	755	717	637	2052	
4100	0	754	716	637	2052	
4101	0	755	717	638	2054	
4102	0	755	716	638	2058	
4103	0	753	715	636	2059	
4104	0	754	717	637	2062	
4105	0	753	716	636	2062	
4106	0	752	716	636	2061	
4107	0	753	716	636	2063	
4108	0	753	716	635	2065	
4109	0	753	715	635	2065	
4110	0	753	716	634	2069	
4111	0	753	717	634	2071	
4112	0	754	717	634	2074	
4113	0	754	716	634	2075	
4114	0	754	716	634	2075	
4115	0	755	716	634	2074	
4116	0	755	717	635	2077	
4117	0	756	717	636	2080	
4118	0	755	716	635	2076	
4119	0	756	717	636	2078	
4120	0	756	716	636	2076	
4121	0	754	716	635	2076	
4122	0	755	717	636	2079	
4123	0	754	716	635	2078	
4124	0	754	717	636	2079	
4125	0	753	716	635	2075	
4126	0	753	717	635	2074	
4127	0	753	716	636	2077	
4128	0	752	715	634	2074	
4129	0	753	717	635	2077	
4130	0	752	716	634	2074	
4131	0	752	716	634	2075	
4132	0	753	717	634	2075	
4133	0	753	716	632	2073	
4134	0	754	716	633	2075	
4135	0	752	715	633	2072	
4136	0	753	716	633	2073	
4137	0	755	717	634	2075	
4138	0	753	716	633	2073	
4139	0	754	716	634	2074	
4140	0	755	716	634	2074	
4141	0	754	716	635	2075	
4142	0	754	716	633	2073	
4143	0	754	715	636	2072	
4144	0	755	716	636	2070	
4145	0	754	716	637	2073	
4146	0	755	716	639	2070	
4147	0	755	716	639	2069	
4148	0	756	717	638	2070	
4149	0	754	716	637	2066	
4150	0	754	716	638	2070	
4151	0	755	717	636	2068	
4152	0	754	715	637	2067	
4153	0	754	716	637	2070	
4154	0	753	715	636	2067	
4155	0	753	716	637	2069	
4156	0	754	717	637	2066	
4157	0	753	717	637	2066	
4158	0	755	717	635	2068	
4159	0	753	716	635	2067	
4160	0	755	716	634	2065	
4161	0	754	716	634	2063	
4162	0	754	716	632	2056	
4163	0	755	716	633	2050	
4164	0	755	716	634	2043	
4165	0	755	716	636	2038	
4166	0	756	717	636	2026	
4167	0	755	716	633	2018	
4168	0	754	716	636	2009	
4169	0	755	717	637	2001	
4170	0	755	716	636	1991	
4171	0	754	715	637	1984	
4172	0	755	717	637	1980	
4173	0	754	716	636	1967	
4174	0	755	717	637	1953	
4175	0	754	716	635	1930	
4176	0	754	717	635	1910	
4177	0	755	716	635	1885	
4178	0	755	716	634	1859	
4179	0	756	716	634	1832	
4180	0	756	716	634	1815	
4181	0	756	717	634	1802	
4182	0	756	717	633	1794	
4183	0	755	716	634	1794	
4184	0	756	716	635	1801	
4185	0	757	715	636	1818	
4186	0	755	716	636	1842	
4187	0	755	716	636	1868	
4188	0	753	715	636	1894	
4189	0	753	715	636	1918	
4190	0	752	716	636	1937	
4191	0	753	716	636	1948	
4192	0	753	716	633	1955	
4193	0	752	715	634	1958	
4194	0	752	715	634	1957	
4195	0	753	715	633	1959	
4196	0	752	716	633	1971	
4197	0	753	716	634	1980	
4198	0	753	715	633	1996	
4199	0	754	716	633	2016	
4200	0	755	716	633	2049	
4201	0	754	716	633	2089	
4202	0	754	716	634	2137	
4203	0	754	716	634	2196	
4204	0	753	716	634	2260	
4205	0	753	716	634	2329	
4206	0	753	716	635	2395	
4207	0	753	716	635	2451	
4208	0	754	716	634	2492	
4209	0	754	716	635	2513	
4210	0	753	715	634	2519	
4211	0	753	715	633	2512	
4212	0	754	716	635	2499	
4213	0	753	715	635	2484	
4214	0	753	717	634	2464	
4215	0	754	716	634	2439	
4216	0	754	715	635	2415	
4217	0	754	716	636	2391	
4218	0	754	716	635	2367	
4219	0	753	716	635	2340	
4220	0	753	716	636	2314	
4221	0	754	715	635	2290	
4222	0	755	716	637	2268	
4223	0	754	715	636	2246	
4224	0	754	716	637	2223	
4225	0	754	716	636	2198	
4226	0	754	715	636	2173	
4227	0	755	716	636	2151	
4228	0	753	715	636	2130	
4229	0	754	716	636	2107	
4230	0	754	715	637	2091	
4231	0	754	716	636	2073	
4232	0	753	715	637	2054	
4233	0	753	715	636	2043	
4234	0	754	717	636	2035	
4235	0	754	715	636	2026	
4236	0	753	717	636	2024	
4237	0	754	716	636	2022	
4238	0	753	715	635	2018	
4239	0	754	716	635	2014	
4240	0	755	716	637	2015	
4241	0	756	716	637	2017	
4242	0	755	716	637	2014	
4243	0	756	717	637	2016	
4244	0	755	716	636	2012	
4245	0	754	717	635	2016	
4246	0	755	716	637	2014	
4247	0	754	716	638	2009	
4248	0	755	717	638	2012	
4249	0	754	716	637	2009	
4250	0	753	716	638	2011	
4251	0	754	716	638	2009	
4252	0	753	716	637	2008	
4253	0	754	717	637	2008	
4254	0	753	716	636	2005	
4255	0	753	716	635	2006	
4256	0	753	716	636	2005	
4257	0	753	716	636	2003	
4258	0	754	716	636	2007	
4259	0	752	716	635	2004	
4260	0	753	716	635	2006	
4261	0	754	717	638	2002	
4262	0	753	716	635	2005	
4263	0	754	717	636	2006	
4264	0	754	715	635	2003	
4265	0	754	716	633	2005	
4266	0	752	716	636	2002	
4267	0	754	716	636	2000	
4268	0	755	716	635	2003	
4269	0	754	716	636	2003	
4270	0	754	716	635	2004	
4271	0	755	715	636	2002	
4272	0	756	716	635	2001	
4273	0	755	716	636	2000	
4274	0	754	716	636	1999	
4275	0	754	716	635	1998	
4276	0	753	716	636	1998	
4277	0	754	716	635	1999	
4278	0	754	716	635	2001	
4279	0	753	716	635	1999	
4280	0	753	716	634	1999	
4281	0	754	716	634	1998	
4282	0	754	717	633	1998	
4283	0	753	717	632	1998	
4284	0	753	716	631	1996	
4285	0	753	717	631	1998	
4286	0	753	716	631	1996	
4287	0	752	717	630	1995	
4288	0	753	716	630	1996	
4289	0	754	717	630	1995	
4290	0	754	716	631	1995	
4291	0	754	717	631	1995	
4292	0	755	717	633	1998	
4293	0	755	716	633	1996	
4294	0	755	717	634	1993	
4295	0	755	717	633	1995	
4296	0	756	717	636	1998	
4297	0	755	717	637	1996	
4298	0	756	717	638	1996	
4299	0	755	716	637	1994	
4300	0	756	716	638	1994	
4301	0	755	716	639	1994	
4302	0	756	716	638	1997	
4303	0	756	718	638	1999	
4304	0	755	715	638	1997	
4305	0	755	715	637	1995	
4306	0	755	715	637	1994	
4307	0	756	715	637	1995	
4308	0	755	716	637	1996	
4309	0	754	715	636	1994	
4310	0	754	715	635	1996	
4311	0	754	716	637	1995	
4312	0	754	716	637	1991	
4313	0	752	715	636	1992	
4314	0	753	716	636	1992	
4315	0	753	714	636	1988	
4316	0	753	715	635	1990	
4317	0	754	716	637	1991	
4318	0	754	715	635	1991	
4319	0	754	716	636	1992	
4320	0	754	715	635	1994	
4321	0	755	716	639	1990	
4322	0	754	716	637	1991	
4323	0	754	715	636	1992	
4324	0	755	717	637	1994	
4325	0	753	716	636	1992	
4326	0	754	716	636	1990	
4327	0	754	717	637	1991	
4328	0	754	717	636	1988	
4329	0	755	717	637	1989	
4330	0	758	715	636	1987	
4331	0	755	715	636	1987	
4332	0	755	716	635	1987	
4333	0	756	717	636	1989	
4334	0	755	716	634	1986	
4335	0	755	716	634	1989	
4336	0	756	717	635	1988	
4337	0	755	716	635	1990	
4338	0	755	717	636	1990	
4339	0	754	716	635	1986	
4340	0	755	715	634	1989	
4341	0	755	716	639	1986	
4342	0	754	715	637	1986	
4343	0	755	716	637	1991	
4344	0	754	715	636	1988	
4345	0	754	715	634	1990	
4346	0	754	715	636	1984	
4347	0	753	716	635	1985	
4348	0	752	715	635	1984	
4349	0	753	715	635	1983	
4350	0	753	715	635	1983	
4351	0	754	715	635	1983	
4352	0	755	715	636	1982	
4353	0	753	715	634	1982	
4354	0	753	716	634	1980	
4355	0	754	716	634	1981	
4356	0	755	716	634	1984	
4357	0	754	716	636	1982	
4358	0	754	716	634	1983	
4359	0	755	716	634	1981	
4360	0	756	716	635	1982	
4361	0	756	716	636	1982	
4362	0	757	716	636	1981	
4363	0	756	716	635	1980	
4364	0	755	716	635	1978	
4365	0	756	716	636	1977	
4366	0	755	715	636	1977	
4367	0	755	716	637	1977	
4368	0	754	715	635	1978	
4369	0	753	716	635	1978	
4370	0	753	716	635	1977	
4371	0	753	715	636	1977	
4372	0	754	716	638	1978	
4373	0	753	715	636	1980	
4374	0	754	716	637	1982	
4375	0	754	716	636	1979	
4376	0	753	716	636	1980	
4377	0	753	716	636	1977	
4378	0	755	717	636	1980	
4379	0	755	717	636	1980	
4380	0	754	716	636	1979	
4381	0	754	717	636	1979	
4382	0	755	717	636	1980	
4383	0	755	716	636	1977	
4384	0	756	717	636	1979	
4385	0	756	719	635	1975	
4386	0	755	717	635	1974	
4387	0	754	717	635	1972	
4388	0	755	716	635	1973	
4389	0	755	716	635	1971	
4390	0	755	716	635	1971	
4391	0	754	716	636	1971	
4392	0	754	716	637	1970	
4393	0	754	716	635	1971	
4394	0	754	716	635	1970	
4395	0	754	716	633	1972	
4396	0	756	717	636	1968	
4397	0	754	717	637	1971	
4398	0	754	716	636	1973	
4399	0	755	716	636	1971	
4400	0	756	716	636	1971	
4401	0	755	715	637	1970	
4402	0	755	716	636	1970	
4403	0	755	716	635	1970	
4404	0	757	717	637	1974	
4405	0	757	716	636	1971	
4406	0	756	716	635	1968	
4407	0	757	716	636	1969	
4408	0	755	716	636	1967	
4409	0	756	717	635	1967	
4410	0	756	716	636	1964	
4411	0	755	715	636	1964	
4412	0	754	716	635	1964	
4413	0	754	715	633	1963	
4414	0	754	715	634	1961	
4415	0	754	715	633	1963	
4416	0	754	716	635	1965	
4417	0	753	715	635	1962	
4418	0	753	715	635	1961	
4419	0	753	716	634	1958	
4420	0	753	716	633	1958	
4421	0	754	716	635	1958	
4422	0	753	716	635	1958	
4423	0	755	716	634	1959	
4424	0	757	717	634	1958	
4425	0	756	718	634	1955	
4426	0	756	715	636	1953	
4427	0	755	715	637	1951	
4428	0	756	715	636	1952	
4429	0	755	715	636	1950	
4430	0	756	715	634	1951	
4431	0	757	716	636	1950	
4432	0	755	715	637	1947	
4433	0	756	715	637	1949	
4434	0	754	714	636	1946	
4435	0	754	715	636	1949	
4436	0	755	716	637	1951	
4437	0	753	715	637	1948	
4438	0	754	716	637	1951	
4439	0	753	714	636	1948	
4440	0	754	715	634	1949	
4441	0	754	715	636	1947	
4442	0	752	715	636	1943	
4443	0	753	715	636	1942	
4444	0	755	717	635	1938	
4445	0	754	715	635	1939	
4446	0	754	715	635	1934	
4447	0	754	715	635	1932	
4448	0	754	714	634	1931	
4449	0	754	714	635	1931	
4450	0	753	714	635	1930	
4451	0	754	714	636	1929	
4452	0	753	715	636	1929	
4453	0	753	715	636	1929	
4454	0	754	715	637	1927	
4455	0	754	714	636	1927	
4456	0	753	714	637	1929	
4457	0	752	715	637	1929	
4458	0	753	715	635	1928	
4459	0	754	716	636	1926	
4460	0	754	715	636	1924	
4461	0	754	716	636	1922	
4462	0	754	715	636	1924	
4463	0	754	716	636	1924	
4464	0	754	716	635	1924	
4465	0	754	715	635	1923	
4466	0	753	715	635	1921	
4467	0	753	716	635	1920	
4468	0	753	716	635	1921	
4469	0	754	717	634	1923	
4470	0	755	716	633	1921	
4471	0	754	716	635	1919	
4472	0	754	716	635	1918	
4473	0	754	716	634	1917	
4474	0	754	716	635	1916	
4475	0	754	715	635	1916	
4476	0	754	716	636	1917	
4477	0	754	716	636	1918	
4478	0	754	717	637	1919	
4479	0	754	715	637	1919	
4480	0	753	715	637	1918	
4481	0	754	715	636	1918	
4482	0	754	716	637	1915	
4483	0	755	716	637	1916	
4484	0	755	716	636	1914	
4485	0	754	715	636	1916	
4486	0	752	715	636	1916	
4487	0	752	717	636	1918	
4488	0	754	717	636	1921	
4489	0	755	716	635	1919	
4490	0	754	716	634	1924	
4491	0	755	717	635	1924	
4492	0	754	716	635	1921	
4493	0	753	716	634	1921	
4494	0	755	717	635	1923	
4495	0	755	717	634	1923	
4496	0	755	716	634	1923	
4497	0	753	716	636	1923	
4498	0	753	716	635	1924	
4499	0	753	716	635	1928	
4500	0	753	716	635	1928	
4501	0	753	716	635	1926	
4502	0	753	717	635	1927	
4503	0	754	717	635	1928	
4504	0	754	716	635	1927	
4505	0	754	716	635	1930	
4506	0	753	717	636	1931	
4507	0	753	717	636	1933	
4508	0	755	717	637	1936	
4509	0	755	717	636	1935	
4510	0	754	717	636	1941	
4511	0	755	718	637	1939	
4512	0	753	717	636	1941	
4513	0	755	718	637	1945	
4514	0	755	716	636	1944	
4515	0	755	716	634	1949	
4516	0	756	717	636	1949	
4517	0	755	717	636	1952	
4518	0	756	717	636	1956	
4519	0	754	716	635	1953	
4520	0	754	717	635	1954	
4521	0	753	717	634	1957	
4522	0	753	717	635	1961	
4523	0	754	717	635	1968	
4524	0	752	716	634	1968	
4525	0	753	716	634	1969	
4526	0	754	716	634	1969	
4527	0	754	717	635	1974	
4528	0	753	716	634	1973	
4529	0	754	716	636	1978	
4530	0	753	719	636	1979	
4531	0	752	716	636	1983	
4532	0	753	716	636	1986	
4533	0	755	717	637	1992	
4534	0	754	715	636	1992	
4535	0	755	716	637	1999	
4536	0	756	717	638	2005	
4537	0	755	716	637	2004	
4538	0	756	717	637	2006	
4539	0	756	716	636	2008	
4540	0	756	716	636	2015	
4541	0	756	717	636	2018	
4542	0	754	717	635	2020	
4543	0	755	717	636	2024	
4544	0	754	716	636	2025	
4545	0	755	716	636	2031	
4546	0	756	717	637	2031	
4547	0	754	716	636	2036	
4548	0	754	716	637	2041	
4549	0	752	715	636	2041	
4550	0	752	715	635	2044	
4551	0	753	715	635	2047	
4552	0	753	716	636	2051	
4553	0	751	715	635	2052	
4554	0	753	716	636	2060	
4555	0	755	715	635	2060	
4556	0	753	715	635	2064	
4557	0	753	716	636	2071	
4558	0	752	714	635	2071	
4559	0	753	716	636	2076	
4560	0	753	718	635	2074	
4561	0	753	716	634	2079	
4562	0	754	717	635	2085	
4563	0	754	716	634	2084	
4564	0	755	717	634	2088	
4565	0	753	716	635	2088	
4566	0	754	715	635	2087	
4567	0	756	716	635	2089	
4568	0	755	716	635	2092	
4569	0	754	716	635	2094	
4570	0	754	716	635	2097	
4571	0	754	716	635	2100	
4572	0	753	716	635	2101	
4573	0	753	716	634	2103	
4574	0	753	716	634	2104	
4575	0	753	716	634	2105	
4576	0	753	715	635	2110	
4577	0	752	716	635	2110	
4578	0	753	716	634	2113	
4579	0	753	716	634	2111	
4580	0	753	715	634	2113	
4581	0	753	716	634	2116	
4582	0	752	716	635	2117	
4583	0	754	715	634	2117	
4584	0	754	716	635	2116	
4585	0	753	716	635	2117	
4586	0	755	716	635	2118	
4587	0	755	717	635	2120	
4588	0	756	716	634	2123	
4589	0	756	716	636	2125	
4590	0	755	716	636	2128	
4591	0	756	717	636	2127	
4592	0	754	716	636	2125	
4593	0	754	717	635	2125	
4594	0	754	717	636	2127	
4595	0	754	717	635	2124	
4596	0	755	716	635	2123	
4597	0	753	716	635	2125	
4598	0	754	716	633	2128	
4599	0	756	717	635	2131	
4600	0	754	716	634	2128	
4601	0	754	717	634	2126	
4602	0	754	717	635	2125	
4603	0	754	716	634	2126	
4604	0	755	717	635	2127	
4605	0	756	716	634	2127	
4606	0	755	716	634	2123	
4607	0	756	717	636	2124	
4608	0	755	716	634	2121	
4609	0	755	717	636	2124	
4610	0	755	717	634	2122	
4611	0	754	716	636	2121	
4612	0	754	717	636	2121	
4613	0	756	718	636	2122	
4614	0	756	716	635	2119	
4615	0	756	716	635	2120	
4616	0	757	717	635	2122	
4617	0	756	717	634	2124	
4618	0	756	717	634	2126	
4619	0	755	716	634	2119	
4620	0	755	716	634	2122	
4621	0	755	716	635	2122	
4622	0	754	717	634	2121	
4623	0	754	717	633	2120	
4624	0	754	717	635	2117	
4625	0	754	716	635	2120	
4626	0	755	716	636	2116	
4627	0	754	716	636	2114	
4628	0	756	716	637	2115	
4629	0	754	716	637	2110	
4630	0	754	715	637	2112	
4631	0	754	716	637	2111	
4632	0	754	715	637	2109	
