# OpenSignals Text File Format. Version 1
# {"00:07:80:4C:2A:F7": {"position": 0, "device": "bioplux", "device name": "00:07:80:4C:2A:F7",
 "device connection": "BTH00:07:80:4C:2A:F7", "sampling rate": 1000, "resolution": [12, 12, 12, 12],
 "firmware version": 512, "comments": "", "keywords": "", "mode": 0, "sync interval": 2, "date": "2024-5-8",
 "time": "20:59:33.354", "channels": [1, 2, 3, 4], "sensor": ["XYZ", "XYZ", "XYZ", "ECG"], "label": ["x", "y", "z", "ECG"], "column": ["nSeq", "DI", "x", "y", "z", "ECG"], "special": [{}, {}, {}, {}], "digital IO": [0, 1], "convertedValues": 0}}
# EndOfHeader
0	0	770	731	633	2100	
1	0	771	731	632	2109	
2	0	772	730	632	2115	
3	0	771	731	632	2119	
4	0	771	730	631	2122	
5	0	770	731	633	2124	
6	0	770	730	632	2129	
7	0	770	730	632	2131	
8	0	770	730	632	2132	
9	0	770	730	631	2125	
10	0	770	730	632	2112	
11	0	771	730	632	2099	
12	0	772	731	632	2083	
13	0	772	731	633	2067	
14	0	771	730	631	2057	
15	0	771	730	631	2054	
16	0	771	730	632	2057	
17	0	771	730	632	2057	
18	0	770	731	632	2058	
19	0	772	731	633	2058	
20	0	770	731	632	2061	
21	0	770	731	632	2068	
22	0	770	731	631	2069	
23	0	770	731	632	2077	
24	0	770	730	631	2082	
25	0	770	731	631	2087	
26	0	771	731	632	2089	
27	0	771	730	632	2086	
28	0	770	731	632	2086	
29	0	770	731	631	2089	
30	0	770	731	633	2092	
31	0	770	731	632	2098	
32	0	771	731	633	2105	
33	0	770	731	633	2113	
34	0	770	730	631	2120	
35	0	770	731	632	2115	
36	0	770	731	632	2106	
37	0	771	731	632	2098	
38	0	771	731	632	2092	
39	0	770	731	631	2089	
40	0	771	731	631	2089	
41	0	771	731	632	2088	
42	0	772	731	632	2080	
43	0	771	731	632	2074	
44	0	771	731	631	2074	
45	0	771	731	631	2075	
46	0	771	731	632	2082	
47	0	771	731	632	2087	
48	0	771	731	632	2092	
49	0	771	731	631	2092	
50	0	771	731	632	2090	
51	0	770	731	632	2087	
52	0	772	731	632	2085	
53	0	772	732	632	2076	
54	0	772	731	631	2069	
55	0	773	732	633	2067	
56	0	771	732	633	2062	
57	0	771	731	632	2055	
58	0	771	732	632	2050	
59	0	770	731	631	2044	
60	0	770	732	633	2042	
61	0	771	731	632	2037	
62	0	772	731	632	2039	
63	0	770	732	633	2051	
64	0	770	731	631	2058	
65	0	771	732	633	2070	
66	0	770	732	633	2071	
67	0	770	731	632	2078	
68	0	770	731	632	2082	
69	0	771	732	633	2083	
70	0	770	731	633	2077	
71	0	770	731	633	2076	
72	0	771	731	633	2073	
73	0	770	731	633	2079	
74	0	771	731	632	2086	
75	0	770	731	632	2092	
76	0	770	731	632	2096	
77	0	771	731	632	2096	
78	0	771	732	632	2097	
79	0	771	731	631	2097	
80	0	770	731	632	2101	
81	0	772	731	632	2098	
82	0	771	731	632	2095	
83	0	771	732	633	2089	
84	0	770	732	632	2086	
85	0	770	731	632	2083	
86	0	770	731	632	2081	
87	0	770	731	632	2082	
88	0	770	732	633	2085	
89	0	770	731	632	2089	
90	0	770	731	633	2091	
91	0	771	731	633	2096	
92	0	770	732	633	2096	
93	0	770	732	633	2095	
94	0	770	732	631	2094	
95	0	771	731	632	2090	
96	0	771	732	633	2089	
97	0	772	731	633	2093	
98	0	772	732	633	2097	
99	0	771	731	632	2098	
100	0	771	731	632	2101	
101	0	771	731	632	2100	
102	0	773	732	633	2098	
103	0	771	732	632	2092	
104	0	773	732	633	2092	
105	0	772	732	632	2087	
106	0	772	732	632	2089	
107	0	772	733	633	2086	
108	0	771	732	632	2088	
109	0	771	733	633	2086	
110	0	770	732	632	2074	
111	0	770	732	632	2070	
112	0	771	732	632	2061	
113	0	771	732	633	2063	
114	0	771	732	632	2070	
115	0	769	732	632	2078	
116	0	770	731	632	2083	
117	0	772	731	632	2080	
118	0	770	732	633	2072	
119	0	771	731	632	2067	
120	0	772	731	632	2072	
121	0	772	732	632	2080	
122	0	771	731	632	2091	
123	0	771	732	633	2100	
124	0	771	731	632	2105	
125	0	770	731	631	2102	
126	0	771	732	632	2096	
127	0	772	731	632	2083	
128	0	770	732	632	2070	
129	0	770	731	632	2060	
130	0	770	731	632	2056	
131	0	771	732	631	2057	
132	0	771	731	632	2061	
133	0	770	732	632	2066	
134	0	770	731	632	2068	
135	0	770	732	632	2063	
136	0	770	732	632	2061	
137	0	770	731	632	2066	
138	0	771	732	632	2076	
139	0	771	731	632	2085	
140	0	770	732	633	2098	
141	0	771	732	633	2107	
142	0	772	731	632	2118	
143	0	770	732	632	2126	
144	0	772	732	633	2129	
145	0	771	732	632	2127	
146	0	770	731	633	2125	
147	0	771	732	633	2118	
148	0	770	732	632	2109	
149	0	769	731	632	2095	
150	0	769	732	633	2078	
151	0	771	733	633	2064	
152	0	771	732	632	2057	
153	0	770	732	632	2053	
154	0	771	733	632	2055	
155	0	770	731	631	2056	
156	0	770	732	631	2066	
157	0	770	732	632	2077	
158	0	770	732	631	2084	
159	0	770	732	633	2091	
160	0	770	731	632	2098	
161	0	771	731	633	2101	
162	0	772	731	633	2112	
163	0	771	731	633	2120	
164	0	771	731	632	2125	
165	0	769	732	633	2129	
166	0	771	730	633	2122	
167	0	770	731	633	2115	
168	0	770	731	632	2105	
169	0	770	730	632	2096	
170	0	770	731	632	2089	
171	0	771	730	632	2086	
172	0	773	731	632	2085	
173	0	771	731	632	2084	
174	0	770	731	632	2081	
175	0	770	731	632	2078	
176	0	771	731	632	2074	
177	0	772	731	632	2072	
178	0	770	731	632	2070	
179	0	771	731	632	2068	
180	0	771	731	632	2069	
181	0	771	730	632	2067	
182	0	772	731	632	2066	
183	0	771	731	632	2060	
184	0	771	731	632	2057	
185	0	770	731	632	2048	
186	0	771	731	632	2047	
187	0	773	731	631	2049	
188	0	771	731	632	2053	
189	0	771	731	632	2062	
190	0	771	731	632	2065	
191	0	771	731	632	2072	
192	0	771	731	632	2075	
193	0	770	732	633	2077	
194	0	771	732	633	2080	
195	0	772	731	632	2082	
196	0	771	731	632	2087	
197	0	771	731	632	2092	
198	0	772	732	633	2097	
199	0	770	732	632	2100	
200	0	769	732	633	2108	
201	0	772	730	631	2111	
202	0	770	732	633	2113	
203	0	772	731	633	2113	
204	0	771	731	632	2102	
205	0	770	731	633	2090	
206	0	771	731	633	2080	
207	0	771	731	632	2073	
208	0	770	731	632	2069	
209	0	770	731	632	2069	
210	0	770	731	632	2074	
211	0	771	731	632	2079	
212	0	772	730	632	2082	
213	0	771	731	633	2081	
214	0	771	731	632	2078	
215	0	771	731	633	2076	
216	0	772	731	633	2075	
217	0	771	731	632	2074	
218	0	770	731	633	2074	
219	0	770	731	632	2074	
220	0	770	731	632	2074	
221	0	771	731	632	2076	
222	0	772	731	632	2076	
223	0	770	731	632	2079	
224	0	771	731	632	2080	
225	0	771	731	632	2084	
226	0	772	731	632	2089	
227	0	771	731	632	2092	
228	0	771	731	632	2096	
229	0	771	731	632	2101	
230	0	771	731	632	2107	
231	0	772	732	632	2110	
232	0	772	731	632	2113	
233	0	771	731	633	2117	
234	0	771	732	633	2116	
235	0	771	731	633	2108	
236	0	771	731	632	2102	
237	0	770	731	633	2095	
238	0	771	732	633	2093	
239	0	770	731	632	2087	
240	0	769	732	633	2085	
241	0	772	730	633	2079	
242	0	770	731	633	2072	
243	0	772	732	632	2069	
244	0	771	731	632	2063	
245	0	769	732	633	2065	
246	0	771	732	633	2066	
247	0	772	731	632	2073	
248	0	771	730	632	2079	
249	0	772	732	632	2083	
250	0	772	731	632	2083	
251	0	772	731	632	2083	
252	0	772	731	632	2080	
253	0	772	732	632	2075	
254	0	771	731	633	2062	
255	0	771	731	632	2046	
256	0	772	731	632	2028	
257	0	771	731	632	2010	
258	0	770	731	633	1987	
259	0	770	731	632	1971	
260	0	770	731	632	1969	
261	0	770	730	632	1986	
262	0	771	731	632	2017	
263	0	770	731	633	2051	
264	0	770	730	633	2076	
265	0	771	731	633	2091	
266	0	772	731	633	2100	
267	0	773	731	632	2104	
268	0	771	730	633	2106	
269	0	771	730	633	2105	
270	0	771	730	633	2108	
271	0	771	730	633	2108	
272	0	771	730	632	2108	
273	0	771	730	633	2101	
274	0	771	731	633	2092	
275	0	770	731	632	2079	
276	0	771	730	632	2073	
277	0	770	731	632	2071	
278	0	771	731	633	2073	
279	0	771	730	632	2075	
280	0	770	731	633	2081	
281	0	771	729	633	2083	
282	0	771	731	633	2086	
283	0	772	732	633	2091	
284	0	771	731	632	2092	
285	0	770	732	635	2093	
286	0	771	731	633	2097	
287	0	771	731	633	2103	
288	0	770	731	632	2104	
289	0	771	731	632	2102	
290	0	770	731	635	2100	
291	0	771	731	632	2101	
292	0	772	731	632	2096	
293	0	771	730	633	2088	
294	0	770	732	632	2070	
295	0	771	731	632	2048	
296	0	771	731	632	2033	
297	0	772	731	632	2027	
298	0	770	730	633	2028	
299	0	770	731	632	2026	
300	0	770	731	632	2022	
301	0	771	731	632	2026	
302	0	771	731	632	2034	
303	0	770	731	632	2043	
304	0	770	731	632	2051	
305	0	771	731	632	2064	
306	0	771	731	632	2076	
307	0	772	731	631	2090	
308	0	771	731	632	2100	
309	0	772	731	632	2107	
310	0	771	732	632	2112	
311	0	771	731	633	2114	
312	0	771	732	632	2112	
313	0	770	730	633	2110	
314	0	770	731	632	2101	
315	0	770	731	632	2090	
316	0	770	731	632	2082	
317	0	771	731	632	2075	
318	0	770	731	633	2073	
319	0	771	733	633	2074	
320	0	770	731	633	2072	
321	0	771	731	633	2072	
322	0	771	731	632	2074	
323	0	771	731	633	2077	
324	0	772	733	633	2076	
325	0	772	732	632	2069	
326	0	772	731	632	2067	
327	0	773	732	633	2069	
328	0	772	731	633	2069	
329	0	773	732	633	2072	
330	0	771	731	632	2066	
331	0	771	731	633	2061	
332	0	772	732	633	2060	
333	0	770	730	633	2056	
334	0	773	731	633	2061	
335	0	771	731	633	2063	
336	0	771	731	632	2063	
337	0	770	732	632	2065	
338	0	770	731	633	2070	
339	0	770	731	632	2074	
340	0	770	731	633	2079	
341	0	770	732	634	2077	
342	0	769	732	632	2076	
343	0	770	732	632	2073	
344	0	770	731	632	2063	
345	0	769	732	633	2059	
346	0	770	733	632	2057	
347	0	769	731	632	2060	
348	0	770	732	633	2067	
349	0	770	731	632	2068	
350	0	771	732	633	2075	
351	0	771	733	633	2073	
352	0	771	732	631	2069	
353	0	770	731	632	2063	
354	0	771	732	633	2060	
355	0	770	732	632	2058	
356	0	771	730	632	2063	
357	0	772	732	632	2065	
358	0	771	732	633	2064	
359	0	771	731	632	2062	
360	0	771	731	632	2057	
361	0	770	731	632	2060	
362	0	771	731	632	2065	
363	0	770	731	632	2072	
364	0	772	731	632	2075	
365	0	772	731	632	2075	
366	0	772	731	632	2073	
367	0	772	730	632	2072	
368	0	771	730	632	2074	
369	0	771	731	632	2076	
370	0	771	731	632	2081	
371	0	771	731	632	2078	
372	0	773	731	632	2071	
373	0	770	731	632	2062	
374	0	772	732	632	2048	
375	0	772	731	632	2036	
376	0	771	732	632	2026	
377	0	771	730	632	2018	
378	0	770	730	632	2016	
379	0	771	731	632	2019	
380	0	771	731	632	2026	
381	0	771	731	632	2032	
382	0	771	731	631	2037	
383	0	770	731	632	2041	
384	0	770	731	632	2043	
385	0	770	731	632	2048	
386	0	771	731	631	2056	
387	0	771	732	632	2062	
388	0	770	730	632	2060	
389	0	772	731	632	2054	
390	0	771	731	631	2041	
391	0	771	731	632	2035	
392	0	771	732	632	2032	
393	0	770	731	632	2031	
394	0	772	732	633	2034	
395	0	771	731	632	2036	
396	0	771	732	632	2040	
397	0	772	733	633	2045	
398	0	771	731	632	2041	
399	0	772	732	632	2035	
400	0	770	732	632	2020	
401	0	770	731	632	2014	
402	0	770	732	633	2010	
403	0	770	731	633	2004	
404	0	770	731	632	1999	
405	0	771	732	633	1995	
406	0	771	730	632	1992	
407	0	771	731	632	1998	
408	0	772	732	633	2005	
409	0	771	731	631	2006	
410	0	771	732	632	2012	
411	0	772	732	632	2008	
412	0	771	730	632	2012	
413	0	770	731	632	2014	
414	0	773	732	633	2019	
415	0	771	731	632	2020	
416	0	772	731	632	2022	
417	0	773	732	632	2023	
418	0	771	731	632	2015	
419	0	771	732	632	2008	
420	0	772	732	634	2000	
421	0	773	731	632	1996	
422	0	772	731	632	1993	
423	0	772	732	633	1995	
424	0	771	731	632	1995	
425	0	771	732	633	1996	
426	0	771	731	631	1998	
427	0	771	730	632	2001	
428	0	771	730	633	2004	
429	0	772	731	632	2005	
430	0	771	731	632	2008	
431	0	772	732	633	2006	
432	0	772	732	632	2001	
433	0	770	731	631	1999	
434	0	771	731	631	1997	
435	0	771	732	632	1996	
436	0	771	732	633	2000	
437	0	771	729	633	2008	
438	0	771	730	632	2019	
439	0	771	731	632	2029	
440	0	772	732	631	2039	
441	0	772	732	632	2052	
442	0	772	732	632	2063	
443	0	771	731	632	2070	
444	0	772	732	632	2071	
445	0	771	732	632	2072	
446	0	772	732	633	2072	
447	0	772	730	632	2075	
448	0	771	731	632	2075	
449	0	772	732	632	2072	
450	0	772	732	632	2067	
451	0	772	731	631	2060	
452	0	773	733	632	2052	
453	0	771	732	631	2048	
454	0	772	732	632	2050	
455	0	771	734	633	2057	
456	0	772	733	635	2063	
457	0	772	733	632	2073	
458	0	772	733	632	2091	
459	0	770	732	632	2102	
460	0	771	733	632	2118	
461	0	772	732	633	2126	
462	0	771	732	633	2131	
463	0	771	732	633	2136	
464	0	771	732	632	2130	
465	0	770	732	633	2127	
466	0	771	732	631	2125	
467	0	771	730	632	2127	
468	0	770	731	632	2132	
469	0	771	732	632	2135	
470	0	771	732	632	2140	
471	0	771	732	634	2139	
472	0	772	732	633	2132	
473	0	771	732	633	2125	
474	0	771	732	632	2118	
475	0	771	731	633	2119	
476	0	771	731	633	2118	
477	0	771	732	633	2120	
478	0	771	732	633	2122	
479	0	771	732	633	2118	
480	0	771	732	632	2115	
481	0	771	732	632	2114	
482	0	771	732	632	2112	
483	0	771	732	633	2108	
484	0	771	732	632	2105	
485	0	771	732	632	2107	
486	0	772	731	632	2113	
487	0	771	732	633	2118	
488	0	771	731	633	2121	
489	0	770	731	632	2123	
490	0	771	731	632	2120	
491	0	772	731	632	2114	
492	0	772	733	633	2111	
493	0	772	732	632	2104	
494	0	772	732	632	2097	
495	0	771	731	632	2089	
496	0	771	732	632	2078	
497	0	772	732	632	2065	
498	0	771	730	632	2052	
499	0	772	731	632	2042	
500	0	772	731	631	2032	
501	0	771	731	632	2025	
502	0	772	732	631	2019	
503	0	770	731	632	2013	
504	0	771	731	632	2004	
505	0	771	731	633	1993	
506	0	771	731	633	1974	
507	0	771	731	632	1944	
508	0	770	731	633	1910	
509	0	771	731	632	1869	
510	0	772	731	632	1822	
511	0	772	731	631	1772	
512	0	772	732	632	1727	
513	0	771	731	632	1695	
514	0	770	731	632	1677	
515	0	770	731	632	1671	
516	0	771	731	632	1680	
517	0	771	731	633	1701	
518	0	769	731	632	1723	
519	0	770	731	632	1745	
520	0	770	730	633	1767	
521	0	771	732	633	1779	
522	0	770	732	632	1780	
523	0	771	732	632	1779	
524	0	771	732	633	1781	
525	0	770	731	632	1788	
526	0	772	730	632	1811	
527	0	771	732	633	1848	
528	0	771	734	633	1888	
529	0	772	731	632	1934	
530	0	772	731	632	1988	
531	0	772	732	632	2046	
532	0	772	732	633	2113	
533	0	772	732	633	2182	
534	0	772	731	632	2252	
535	0	772	732	632	2333	
536	0	773	733	633	2427	
537	0	773	733	633	2527	
538	0	773	733	633	2615	
539	0	773	733	633	2675	
540	0	773	733	633	2712	
541	0	771	733	633	2727	
542	0	772	732	633	2726	
543	0	772	732	633	2710	
544	0	771	732	632	2679	
545	0	772	731	632	2642	
546	0	772	732	632	2602	
547	0	772	733	632	2565	
548	0	772	732	632	2523	
549	0	771	731	632	2477	
550	0	771	732	632	2434	
551	0	771	732	632	2393	
552	0	771	731	632	2351	
553	0	771	732	633	2311	
554	0	772	732	633	2272	
555	0	772	732	633	2236	
556	0	771	731	633	2202	
557	0	771	733	632	2175	
558	0	770	732	632	2148	
559	0	771	733	632	2126	
560	0	771	732	632	2103	
561	0	770	731	631	2082	
562	0	771	732	631	2068	
563	0	771	732	632	2062	
564	0	770	731	632	2053	
565	0	771	729	633	2053	
566	0	771	734	633	2048	
567	0	771	732	632	2049	
568	0	772	732	633	2052	
569	0	771	731	632	2052	
570	0	772	731	633	2060	
571	0	772	733	631	2064	
572	0	771	732	632	2066	
573	0	772	732	633	2066	
574	0	771	731	632	2055	
575	0	770	730	632	2049	
576	0	770	731	632	2041	
577	0	769	731	631	2037	
578	0	769	732	633	2033	
579	0	768	732	632	2028	
580	0	767	732	632	2025	
581	0	767	732	632	2027	
582	0	767	733	633	2028	
583	0	767	732	632	2025	
584	0	768	733	633	2027	
585	0	771	732	632	2024	
586	0	769	731	633	2027	
587	0	769	734	633	2030	
588	0	768	733	632	2028	
589	0	769	733	633	2028	
590	0	770	732	632	2027	
591	0	770	732	633	2020	
592	0	770	732	633	2013	
593	0	769	731	633	2003	
594	0	771	732	634	1997	
595	0	771	731	632	1988	
596	0	771	731	632	1986	
597	0	773	731	632	1991	
598	0	774	732	633	1999	
599	0	773	731	632	2002	
600	0	774	731	633	2005	
601	0	774	732	631	2001	
602	0	774	732	632	1996	
603	0	774	732	632	1993	
604	0	775	732	632	1993	
605	0	776	732	632	1999	
606	0	774	732	632	2009	
607	0	774	733	632	2017	
608	0	774	731	633	2026	
609	0	772	732	633	2032	
610	0	772	732	633	2036	
611	0	771	733	632	2036	
612	0	772	734	632	2033	
613	0	772	733	632	2029	
614	0	772	732	632	2021	
615	0	771	732	632	2009	
616	0	771	733	632	2001	
617	0	772	734	632	1997	
618	0	772	732	633	2003	
619	0	771	732	632	2012	
620	0	771	732	633	2020	
621	0	769	732	633	2028	
622	0	770	733	633	2036	
623	0	770	731	634	2043	
624	0	770	731	633	2040	
625	0	769	730	633	2032	
626	0	768	732	633	2023	
627	0	768	732	633	2016	
628	0	768	731	633	2016	
629	0	769	731	633	2016	
630	0	772	730	632	2014	
631	0	768	731	633	2005	
632	0	769	730	632	1994	
633	0	770	731	633	1985	
634	0	770	730	632	1970	
635	0	771	729	633	1970	
636	0	770	731	633	1974	
637	0	769	731	633	1981	
638	0	770	731	633	1991	
639	0	770	730	632	1994	
640	0	770	730	633	2001	
641	0	771	734	632	2003	
642	0	770	732	631	2007	
643	0	772	732	633	2014	
644	0	771	732	632	2016	
645	0	771	731	632	2019	
646	0	772	732	632	2015	
647	0	771	732	631	2010	
648	0	771	731	633	2006	
649	0	774	732	632	2003	
650	0	772	731	633	2002	
651	0	772	732	632	2001	
652	0	772	733	631	2004	
653	0	772	733	632	2009	
654	0	771	732	631	2012	
655	0	771	732	631	2010	
656	0	770	733	632	2002	
657	0	770	734	632	1990	
658	0	769	732	632	1982	
659	0	770	732	631	1981	
660	0	770	732	632	1981	
661	0	769	732	632	1984	
662	0	771	733	632	1987	
663	0	771	732	632	1992	
664	0	771	731	632	1994	
665	0	770	732	632	1992	
666	0	771	732	632	1992	
667	0	771	733	631	1992	
668	0	770	732	631	1993	
669	0	771	731	631	1989	
670	0	771	732	631	1992	
671	0	770	732	631	1991	
672	0	772	733	631	1990	
673	0	771	732	631	1992	
674	0	771	732	631	1991	
675	0	771	732	631	1991	
676	0	770	731	632	1992	
677	0	772	732	632	1991	
678	0	772	731	632	1989	
679	0	772	731	632	1979	
680	0	771	729	633	1960	
681	0	772	732	633	1936	
682	0	771	731	631	1922	
683	0	772	732	632	1921	
684	0	772	731	631	1925	
685	0	772	730	632	1944	
686	0	773	732	632	1963	
687	0	773	732	631	1978	
688	0	773	732	632	1995	
689	0	772	731	631	2002	
690	0	772	729	632	2011	
691	0	773	732	632	2011	
692	0	772	731	631	2011	
693	0	773	732	632	2016	
694	0	771	731	632	2016	
695	0	772	730	632	2019	
696	0	772	732	632	2016	
697	0	772	733	632	2012	
698	0	772	732	633	2009	
699	0	771	732	633	2001	
700	0	770	732	633	1992	
701	0	770	733	633	1982	
702	0	770	733	633	1973	
703	0	771	732	633	1968	
704	0	771	731	633	1963	
705	0	771	732	632	1964	
706	0	769	733	632	1965	
707	0	771	732	632	1968	
708	0	770	731	632	1970	
709	0	770	732	632	1963	
710	0	770	732	632	1953	
711	0	769	733	632	1944	
712	0	770	732	632	1942	
713	0	769	732	632	1944	
714	0	770	731	632	1945	
715	0	770	731	632	1953	
716	0	770	732	632	1962	
717	0	771	732	631	1968	
718	0	770	732	632	1975	
719	0	771	731	632	1982	
720	0	770	731	632	1986	
721	0	771	732	632	1993	
722	0	771	732	632	2002	
723	0	770	732	632	2001	
724	0	770	731	632	1994	
725	0	771	730	633	1984	
726	0	771	731	632	1960	
727	0	771	731	631	1939	
728	0	772	731	633	1927	
729	0	770	731	632	1919	
730	0	769	729	633	1925	
731	0	771	732	631	1926	
732	0	770	731	631	1934	
733	0	771	732	633	1937	
734	0	770	731	632	1940	
735	0	770	730	632	1941	
736	0	771	731	631	1934	
737	0	771	732	631	1928	
738	0	771	730	631	1928	
739	0	769	731	632	1925	
740	0	770	730	632	1927	
741	0	770	731	632	1934	
742	0	771	732	632	1943	
743	0	770	731	632	1952	
744	0	771	731	632	1959	
745	0	771	731	632	1957	
746	0	770	731	632	1954	
747	0	771	732	632	1954	
748	0	771	731	632	1956	
749	0	770	731	632	1952	
750	0	770	731	633	1945	
751	0	770	731	632	1936	
752	0	770	732	632	1926	
753	0	770	730	632	1922	
754	0	770	731	632	1918	
755	0	769	732	632	1914	
756	0	768	732	632	1912	
757	0	770	733	632	1911	
758	0	770	731	633	1916	
759	0	771	731	632	1921	
760	0	770	732	632	1927	
761	0	772	732	632	1932	
762	0	772	733	633	1935	
763	0	771	731	632	1933	
764	0	771	732	632	1932	
765	0	770	732	633	1939	
766	0	771	732	633	1939	
767	0	771	732	632	1941	
768	0	771	732	632	1947	
769	0	771	732	632	1948	
770	0	770	732	632	1953	
771	0	771	733	631	1955	
772	0	770	733	631	1954	
773	0	770	732	633	1950	
774	0	770	732	632	1941	
775	0	770	732	633	1934	
776	0	771	733	633	1924	
777	0	771	732	632	1922	
778	0	771	733	633	1925	
779	0	770	732	633	1923	
780	0	770	732	633	1931	
781	0	770	733	632	1941	
782	0	771	733	633	1950	
783	0	771	733	633	1961	
784	0	770	732	632	1960	
785	0	771	732	632	1965	
786	0	772	733	634	1968	
787	0	772	733	632	1972	
788	0	771	732	632	1970	
789	0	773	732	632	1972	
790	0	771	732	632	1978	
791	0	770	733	633	1982	
792	0	770	733	634	1979	
793	0	771	732	632	1969	
794	0	771	732	632	1952	
795	0	772	731	633	1939	
796	0	771	731	633	1933	
797	0	770	732	631	1938	
798	0	770	731	633	1941	
799	0	770	732	632	1945	
800	0	770	732	633	1953	
801	0	770	732	632	1964	
802	0	771	733	632	1980	
803	0	770	731	632	1991	
804	0	770	732	632	1999	
805	0	771	732	632	2006	
806	0	771	732	631	2012	
807	0	772	733	633	2016	
808	0	771	731	631	2018	
809	0	771	732	632	2021	
810	0	772	732	632	2024	
811	0	771	732	632	2019	
812	0	771	732	632	2015	
813	0	771	731	633	2012	
814	0	772	733	633	2014	
815	0	772	732	632	2014	
816	0	771	732	632	2015	
817	0	771	732	632	2019	
818	0	772	732	632	2021	
819	0	772	731	632	2023	
820	0	771	732	632	2028	
821	0	772	733	632	2029	
822	0	771	732	632	2026	
823	0	771	731	632	2031	
824	0	773	732	633	2039	
825	0	774	731	632	2046	
826	0	771	731	631	2053	
827	0	770	732	632	2060	
828	0	770	731	631	2068	
829	0	770	732	632	2074	
830	0	771	731	633	2081	
831	0	772	732	632	2091	
832	0	771	732	631	2096	
833	0	771	731	632	2102	
834	0	770	731	633	2107	
835	0	770	731	632	2112	
836	0	770	731	633	2115	
837	0	771	732	632	2117	
838	0	771	731	632	2122	
839	0	770	731	632	2120	
840	0	770	731	632	2118	
841	0	771	732	632	2120	
842	0	771	732	632	2123	
843	0	770	730	632	2129	
844	0	770	731	632	2128	
845	0	771	731	632	2127	
846	0	770	731	632	2123	
847	0	770	731	632	2126	
848	0	770	730	633	2129	
849	0	770	731	632	2133	
850	0	770	731	632	2142	
851	0	771	731	632	2147	
852	0	772	732	632	2154	
853	0	772	732	633	2165	
854	0	772	732	632	2167	
855	0	771	732	632	2172	
856	0	771	732	631	2171	
857	0	771	732	632	2170	
858	0	771	731	631	2163	
859	0	772	732	633	2156	
860	0	772	731	632	2143	
861	0	771	731	631	2133	
862	0	771	731	632	2126	
863	0	770	730	632	2119	
864	0	771	732	633	2116	
865	0	771	731	632	2110	
866	0	771	731	632	2107	
867	0	771	731	632	2106	
868	0	771	732	633	2109	
869	0	771	731	632	2109	
870	0	771	732	633	2114	
871	0	772	732	633	2116	
872	0	772	731	633	2119	
873	0	772	732	633	2123	
874	0	770	731	632	2118	
875	0	770	731	633	2121	
876	0	772	732	632	2121	
877	0	771	732	632	2125	
878	0	770	731	632	2129	
879	0	770	732	632	2132	
880	0	771	731	632	2133	
881	0	771	731	632	2136	
882	0	772	732	632	2137	
883	0	771	731	632	2140	
884	0	771	731	632	2142	
885	0	771	731	632	2143	
886	0	770	731	632	2141	
887	0	770	731	632	2138	
888	0	769	731	631	2135	
889	0	769	731	633	2128	
890	0	768	730	632	2125	
891	0	768	731	632	2123	
892	0	769	732	632	2122	
893	0	770	731	632	2120	
894	0	771	731	632	2116	
895	0	771	732	632	2115	
896	0	771	732	632	2113	
897	0	773	732	632	2111	
898	0	773	731	632	2111	
899	0	775	732	632	2108	
900	0	775	732	632	2102	
901	0	774	732	632	2098	
902	0	775	733	632	2101	
903	0	774	731	631	2104	
904	0	774	731	631	2109	
905	0	773	732	632	2121	
906	0	773	733	632	2126	
907	0	773	732	632	2125	
908	0	773	732	632	2130	
909	0	772	732	632	2135	
910	0	772	732	633	2144	
911	0	772	732	635	2135	
912	0	771	731	632	2122	
913	0	770	731	632	2109	
914	0	770	733	633	2102	
915	0	770	731	633	2093	
916	0	769	732	633	2094	
917	0	771	732	633	2097	
918	0	769	731	632	2095	
919	0	770	732	633	2097	
920	0	768	732	632	2094	
921	0	769	734	631	2100	
922	0	769	731	632	2106	
923	0	768	730	631	2113	
924	0	768	731	632	2116	
925	0	769	731	632	2119	
926	0	769	731	632	2121	
927	0	770	731	632	2123	
928	0	770	730	632	2122	
929	0	772	731	632	2112	
930	0	771	731	632	2099	
931	0	771	731	632	2087	
932	0	771	731	632	2082	
933	0	771	731	632	2084	
934	0	772	731	632	2086	
935	0	772	731	632	2092	
936	0	772	731	632	2094	
937	0	772	731	632	2092	
938	0	772	730	632	2091	
939	0	772	731	632	2086	
940	0	771	731	631	2079	
941	0	771	731	631	2077	
942	0	772	731	632	2073	
943	0	772	730	631	2069	
944	0	772	731	632	2068	
945	0	771	731	632	2069	
946	0	772	731	633	2067	
947	0	772	732	634	2068	
948	0	772	733	633	2073	
949	0	771	732	632	2075	
950	0	770	732	632	2082	
951	0	771	732	632	2089	
952	0	773	732	632	2094	
953	0	771	732	632	2097	
954	0	771	733	632	2098	
955	0	771	733	632	2101	
956	0	771	733	632	2101	
957	0	772	733	631	2104	
958	0	772	732	631	2105	
959	0	772	732	632	2101	
960	0	771	732	632	2095	
961	0	771	731	632	2088	
962	0	771	732	632	2078	
963	0	772	732	632	2070	
964	0	771	732	632	2064	
965	0	771	732	632	2062	
966	0	771	732	632	2064	
967	0	771	732	632	2067	
968	0	771	732	631	2069	
969	0	771	732	631	2068	
970	0	771	732	632	2073	
971	0	771	732	632	2080	
972	0	771	732	634	2089	
973	0	772	732	633	2098	
974	0	771	731	632	2100	
975	0	772	731	632	2097	
976	0	771	732	632	2092	
977	0	772	733	632	2089	
978	0	771	732	631	2080	
979	0	772	732	633	2078	
980	0	772	730	633	2075	
981	0	771	731	632	2078	
982	0	772	732	633	2081	
983	0	772	731	631	2082	
984	0	772	731	632	2084	
985	0	772	732	632	2086	
986	0	773	733	631	2082	
987	0	773	732	632	2078	
988	0	773	732	632	2077	
989	0	773	731	632	2075	
990	0	773	731	633	2076	
991	0	772	732	632	2076	
992	0	772	731	633	2071	
993	0	773	732	633	2072	
994	0	772	731	632	2070	
995	0	772	731	633	2075	
996	0	774	732	633	2082	
997	0	773	731	633	2086	
998	0	773	732	633	2093	
999	0	772	731	632	2093	
1000	0	772	731	632	2092	
1001	0	772	731	633	2091	
1002	0	772	731	632	2086	
1003	0	772	731	631	2080	
1004	0	772	731	632	2069	
1005	0	772	731	632	2060	
1006	0	772	731	632	2051	
1007	0	772	731	631	2047	
1008	0	772	731	631	2051	
1009	0	772	732	632	2056	
1010	0	772	731	632	2065	
1011	0	772	731	632	2072	
1012	0	772	732	632	2078	
1013	0	772	732	632	2081	
1014	0	772	732	632	2078	
1015	0	772	732	631	2082	
1016	0	773	731	632	2088	
1017	0	773	732	632	2098	
1018	0	772	732	632	2104	
1019	0	772	732	632	2106	
1020	0	772	732	632	2105	
1021	0	772	732	632	2105	
1022	0	774	733	632	2105	
1023	0	773	732	631	2105	
1024	0	772	732	631	2097	
1025	0	772	732	633	2090	
1026	0	773	732	632	2077	
1027	0	772	732	633	2071	
1028	0	773	733	632	2072	
1029	0	773	732	631	2067	
1030	0	773	733	632	2075	
1031	0	773	733	632	2076	
1032	0	772	732	632	2078	
1033	0	772	732	632	2083	
1034	0	772	733	632	2089	
1035	0	773	732	632	2096	
1036	0	772	732	631	2097	
1037	0	772	733	632	2098	
1038	0	773	733	632	2099	
1039	0	772	732	632	2084	
1040	0	772	732	632	2070	
1041	0	772	733	632	2055	
1042	0	772	733	632	2047	
1043	0	773	733	632	2046	
1044	0	772	733	631	2043	
1045	0	772	733	632	2047	
1046	0	771	733	631	2047	
1047	0	773	733	631	2045	
1048	0	772	733	630	2041	
1049	0	772	732	632	2035	
1050	0	772	732	632	2038	
1051	0	772	731	631	2048	
1052	0	772	733	632	2064	
1053	0	772	733	632	2078	
1054	0	772	733	632	2088	
1055	0	771	733	631	2096	
1056	0	771	732	631	2095	
1057	0	771	733	632	2096	
1058	0	771	733	631	2097	
1059	0	771	733	631	2098	
1060	0	771	733	631	2098	
1061	0	771	732	630	2098	
1062	0	772	733	631	2097	
1063	0	772	733	630	2096	
1064	0	771	733	630	2097	
1065	0	770	733	631	2088	
1066	0	770	732	631	2079	
1067	0	771	733	632	2072	
1068	0	771	733	630	2072	
1069	0	771	733	631	2068	
1070	0	771	733	631	2071	
1071	0	771	733	631	2071	
1072	0	771	734	632	2069	
1073	0	770	733	631	2060	
1074	0	770	733	631	2056	
1075	0	771	732	631	2060	
1076	0	771	732	632	2069	
1077	0	772	734	631	2076	
1078	0	772	733	631	2083	
1079	0	772	733	631	2084	
1080	0	771	732	631	2084	
1081	0	771	732	631	2085	
1082	0	771	733	631	2088	
1083	0	771	733	631	2095	
1084	0	770	732	631	2097	
1085	0	770	733	632	2096	
1086	0	769	732	631	2097	
1087	0	769	732	632	2099	
1088	0	769	732	632	2103	
1089	0	770	732	632	2102	
1090	0	770	732	632	2104	
1091	0	770	731	632	2105	
1092	0	770	733	632	2102	
1093	0	770	733	632	2098	
1094	0	771	732	632	2083	
1095	0	771	732	632	2068	
1096	0	770	732	632	2056	
1097	0	772	733	632	2051	
1098	0	772	732	631	2050	
1099	0	772	732	631	2052	
1100	0	772	733	631	2058	
1101	0	772	733	634	2061	
1102	0	771	733	631	2066	
1103	0	772	733	632	2069	
1104	0	771	732	632	2067	
1105	0	772	733	631	2071	
1106	0	772	732	632	2073	
1107	0	773	732	632	2078	
1108	0	772	732	632	2084	
1109	0	774	733	633	2090	
1110	0	773	731	632	2088	
1111	0	771	732	632	2089	
1112	0	772	732	633	2083	
1113	0	771	731	632	2071	
1114	0	772	732	633	2068	
1115	0	771	731	633	2066	
1116	0	771	732	632	2070	
1117	0	772	732	633	2077	
1118	0	771	731	633	2078	
1119	0	772	732	634	2082	
1120	0	773	734	633	2074	
1121	0	771	731	633	2078	
1122	0	772	732	633	2082	
1123	0	772	731	633	2084	
1124	0	772	732	633	2086	
1125	0	771	732	632	2077	
1126	0	772	732	632	2067	
1127	0	772	732	633	2057	
1128	0	772	731	633	2043	
1129	0	773	734	633	2035	
1130	0	772	732	632	2035	
1131	0	771	731	633	2025	
1132	0	771	732	633	2024	
1133	0	771	731	633	2032	
1134	0	771	731	633	2043	
1135	0	772	731	633	2056	
1136	0	772	731	634	2065	
1137	0	772	731	633	2074	
1138	0	773	731	633	2082	
1139	0	773	731	633	2090	
1140	0	772	731	633	2097	
1141	0	772	731	634	2096	
1142	0	772	732	634	2089	
1143	0	771	731	634	2087	
1144	0	771	731	634	2079	
1145	0	772	731	633	2076	
1146	0	772	731	634	2074	
1147	0	771	732	633	2069	
1148	0	772	732	633	2070	
1149	0	771	732	633	2070	
1150	0	771	732	633	2076	
1151	0	771	731	633	2083	
1152	0	771	732	634	2091	
1153	0	770	732	633	2093	
1154	0	771	732	633	2087	
1155	0	771	732	631	2081	
1156	0	772	733	636	2069	
1157	0	771	732	633	2055	
1158	0	770	731	633	2047	
1159	0	771	732	633	2042	
1160	0	771	734	633	2033	
1161	0	770	731	632	2040	
1162	0	772	732	633	2047	
1163	0	772	731	633	2050	
1164	0	772	732	633	2053	
1165	0	773	732	632	2048	
1166	0	772	732	632	2045	
1167	0	772	732	633	2047	
1168	0	770	731	632	2049	
1169	0	772	734	633	2052	
1170	0	771	732	631	2056	
1171	0	771	732	633	2055	
1172	0	771	732	634	2052	
1173	0	771	732	633	2053	
1174	0	771	732	633	2056	
1175	0	771	731	632	2059	
1176	0	771	732	633	2069	
1177	0	771	732	634	2074	
1178	0	770	732	633	2080	
1179	0	771	732	632	2079	
1180	0	772	731	632	2079	
1181	0	773	732	632	2077	
1182	0	772	732	633	2075	
1183	0	771	732	632	2066	
1184	0	772	732	632	2058	
1185	0	771	731	631	2053	
1186	0	770	733	632	2055	
1187	0	771	733	634	2056	
1188	0	770	732	632	2056	
1189	0	772	732	633	2056	
1190	0	772	732	632	2057	
1191	0	772	732	633	2060	
1192	0	772	732	634	2069	
1193	0	772	732	632	2085	
1194	0	773	732	632	2098	
1195	0	772	732	630	2108	
1196	0	772	733	635	2110	
1197	0	771	733	633	2112	
1198	0	772	732	632	2108	
1199	0	773	732	632	2101	
1200	0	772	733	631	2092	
1201	0	770	733	632	2089	
1202	0	771	733	633	2087	
1203	0	770	732	632	2076	
1204	0	771	732	632	2058	
1205	0	771	732	632	2047	
1206	0	773	733	633	2041	
1207	0	771	732	634	2043	
1208	0	771	733	632	2047	
1209	0	772	733	632	2050	
1210	0	772	734	632	2056	
1211	0	770	733	632	2057	
1212	0	771	733	634	2058	
1213	0	772	733	632	2059	
1214	0	772	733	632	2059	
1215	0	771	732	631	2058	
1216	0	771	732	632	2054	
1217	0	770	732	633	2055	
1218	0	771	732	631	2056	
1219	0	771	732	632	2062	
1220	0	772	732	630	2070	
1221	0	773	732	635	2074	
1222	0	772	732	633	2078	
1223	0	771	731	632	2081	
1224	0	772	732	633	2076	
1225	0	773	734	632	2065	
1226	0	771	732	631	2058	
1227	0	772	732	632	2053	
1228	0	772	732	631	2044	
1229	0	773	733	632	2046	
1230	0	772	733	631	2050	
1231	0	773	732	632	2056	
1232	0	773	733	632	2069	
1233	0	771	732	632	2075	
1234	0	772	733	632	2084	
1235	0	773	733	631	2087	
1236	0	771	732	632	2087	
1237	0	771	732	632	2084	
1238	0	773	732	633	2083	
1239	0	772	732	632	2078	
1240	0	773	732	631	2079	
1241	0	774	732	633	2077	
1242	0	772	732	632	2072	
1243	0	773	733	633	2071	
1244	0	771	732	632	2062	
1245	0	771	732	631	2060	
1246	0	771	733	632	2052	
1247	0	771	732	632	2046	
1248	0	772	733	632	2043	
1249	0	772	732	631	2034	
1250	0	771	732	630	2036	
1251	0	771	733	631	2037	
1252	0	771	733	633	2040	
1253	0	772	732	631	2047	
1254	0	772	732	632	2049	
1255	0	772	732	632	2052	
1256	0	772	732	632	2051	
1257	0	772	731	633	2043	
1258	0	772	731	632	2040	
1259	0	772	731	631	2033	
1260	0	772	732	631	2025	
1261	0	772	732	633	2022	
1262	0	771	732	633	2021	
1263	0	772	732	632	2022	
1264	0	772	732	632	2018	
1265	0	772	732	631	2012	
1266	0	772	732	633	2014	
1267	0	771	733	633	2027	
1268	0	772	732	632	2041	
1269	0	772	732	632	2057	
1270	0	772	732	632	2073	
1271	0	772	732	633	2079	
1272	0	771	732	632	2088	
1273	0	771	733	632	2097	
1274	0	771	733	632	2101	
1275	0	771	732	632	2102	
1276	0	771	732	632	2100	
1277	0	772	733	633	2099	
1278	0	771	732	632	2094	
1279	0	771	732	632	2095	
1280	0	772	732	631	2097	
1281	0	772	732	633	2094	
1282	0	772	732	633	2085	
1283	0	773	733	633	2077	
1284	0	772	732	632	2061	
1285	0	771	732	632	2052	
1286	0	772	733	633	2047	
1287	0	771	732	632	2047	
1288	0	772	733	633	2054	
1289	0	772	732	632	2057	
1290	0	771	732	632	2068	
1291	0	770	732	633	2069	
1292	0	770	732	634	2071	
1293	0	770	731	633	2070	
1294	0	770	731	633	2068	
1295	0	771	732	632	2065	
1296	0	772	731	633	2063	
1297	0	771	732	633	2063	
1298	0	771	732	633	2066	
1299	0	771	732	632	2069	
1300	0	771	732	632	2066	
1301	0	770	732	633	2067	
1302	0	770	732	633	2072	
1303	0	771	732	632	2077	
1304	0	771	733	632	2079	
1305	0	771	732	632	2077	
1306	0	770	731	634	2069	
1307	0	770	732	633	2067	
1308	0	771	732	632	2067	
1309	0	771	732	632	2063	
1310	0	771	732	632	2067	
1311	0	771	732	633	2066	
1312	0	770	732	633	2063	
1313	0	770	732	632	2063	
1314	0	770	732	632	2063	
1315	0	771	733	632	2064	
1316	0	772	733	632	2066	
1317	0	772	733	633	2065	
1318	0	771	732	633	2057	
1319	0	771	732	632	2047	
1320	0	771	732	632	2045	
1321	0	772	734	633	2043	
1322	0	772	733	633	2038	
1323	0	772	733	633	2035	
1324	0	772	732	632	2030	
1325	0	772	733	632	2035	
1326	0	772	734	633	2042	
1327	0	771	733	632	2046	
1328	0	772	734	633	2053	
1329	0	772	733	632	2053	
1330	0	771	732	632	2059	
1331	0	771	734	632	2058	
1332	0	770	733	632	2056	
1333	0	772	734	632	2060	
1334	0	770	733	631	2057	
1335	0	770	733	630	2054	
1336	0	773	733	632	2048	
1337	0	770	733	632	2047	
1338	0	772	732	631	2045	
1339	0	772	733	631	2045	
1340	0	772	732	632	2042	
1341	0	771	732	632	2047	
1342	0	771	733	633	2052	
1343	0	771	732	631	2053	
1344	0	771	732	632	2041	
1345	0	771	733	631	2024	
1346	0	771	733	631	2011	
1347	0	771	733	631	2002	
1348	0	771	733	631	2002	
1349	0	771	733	631	2001	
1350	0	771	732	631	2002	
1351	0	771	732	631	2000	
1352	0	772	732	632	1999	
1353	0	772	732	630	2000	
1354	0	772	732	631	2005	
1355	0	771	732	631	2011	
1356	0	771	732	631	2017	
1357	0	771	733	631	2023	
1358	0	771	733	631	2023	
1359	0	772	733	631	2019	
1360	0	772	732	632	2018	
1361	0	771	732	632	2022	
1362	0	770	732	633	2027	
1363	0	771	731	631	2035	
1364	0	772	733	632	2039	
1365	0	772	735	631	2035	
1366	0	771	732	632	2031	
1367	0	771	733	632	2025	
1368	0	772	733	632	2014	
1369	0	771	732	631	1995	
1370	0	772	733	632	1986	
1371	0	772	733	632	1976	
1372	0	771	733	632	1968	
1373	0	772	733	632	1966	
1374	0	770	732	632	1961	
1375	0	770	732	632	1953	
1376	0	771	732	633	1948	
1377	0	770	732	632	1953	
1378	0	772	732	631	1961	
1379	0	772	732	631	1972	
1380	0	772	731	632	1980	
1381	0	772	732	632	1991	
1382	0	772	732	633	2005	
1383	0	771	732	632	2018	
1384	0	772	732	632	2025	
1385	0	771	732	632	2030	
1386	0	771	732	632	2035	
1387	0	771	732	633	2039	
1388	0	771	732	632	2044	
1389	0	771	732	632	2045	
1390	0	771	732	631	2046	
1391	0	771	731	632	2038	
1392	0	770	732	633	2035	
1393	0	772	732	631	2030	
1394	0	772	731	632	2030	
1395	0	771	731	632	2029	
1396	0	771	732	632	2030	
1397	0	772	732	631	2028	
1398	0	772	731	631	2033	
1399	0	771	731	632	2035	
1400	0	771	731	631	2034	
1401	0	772	731	631	2032	
1402	0	771	732	632	2032	
1403	0	772	731	631	2032	
1404	0	772	731	632	2034	
1405	0	771	731	632	2032	
1406	0	772	731	632	2025	
1407	0	771	731	633	2020	
1408	0	772	731	632	2015	
1409	0	772	731	632	2012	
1410	0	772	731	632	2011	
1411	0	773	731	632	2013	
1412	0	772	731	632	2014	
1413	0	772	731	632	2020	
1414	0	771	731	631	2023	
1415	0	772	731	632	2032	
1416	0	771	731	633	2043	
1417	0	770	732	633	2051	
1418	0	771	731	632	2061	
1419	0	771	731	633	2066	
1420	0	771	731	633	2064	
1421	0	772	731	634	2070	
1422	0	771	732	634	2077	
1423	0	772	732	632	2086	
1424	0	772	732	633	2092	
1425	0	771	732	632	2093	
1426	0	772	732	633	2097	
1427	0	772	731	633	2101	
1428	0	772	731	633	2107	
1429	0	771	731	633	2104	
1430	0	772	731	633	2105	
1431	0	772	730	633	2099	
1432	0	772	731	634	2100	
1433	0	772	731	633	2099	
1434	0	772	731	633	2098	
1435	0	771	731	633	2103	
1436	0	771	732	634	2101	
1437	0	770	731	634	2101	
1438	0	773	732	634	2100	
1439	0	772	731	633	2100	
1440	0	771	731	633	2102	
1441	0	772	730	634	2102	
1442	0	772	732	634	2095	
1443	0	771	731	633	2079	
1444	0	772	731	634	2065	
1445	0	772	731	634	2047	
1446	0	771	731	635	2036	
1447	0	772	732	634	2032	
1448	0	771	731	632	2028	
1449	0	772	731	633	2027	
1450	0	773	732	632	2027	
1451	0	773	731	632	2025	
1452	0	773	733	633	2030	
1453	0	772	731	632	2033	
1454	0	774	732	634	2045	
1455	0	775	732	633	2052	
1456	0	773	731	633	2067	
1457	0	773	732	633	2080	
1458	0	773	732	633	2084	
1459	0	773	731	633	2084	
1460	0	772	731	633	2079	
1461	0	774	732	634	2075	
1462	0	772	731	633	2071	
1463	0	773	731	634	2070	
1464	0	772	731	633	2063	
1465	0	773	731	633	2059	
1466	0	774	732	633	2052	
1467	0	773	732	633	2040	
1468	0	772	731	631	2026	
1469	0	771	732	633	2013	
1470	0	773	730	634	1989	
1471	0	773	731	634	1952	
1472	0	773	732	633	1907	
1473	0	772	732	632	1865	
1474	0	771	731	632	1825	
1475	0	772	731	633	1785	
1476	0	772	731	632	1755	
1477	0	772	732	633	1727	
1478	0	772	731	632	1706	
1479	0	771	731	632	1690	
1480	0	772	731	632	1681	
1481	0	773	732	633	1693	
1482	0	772	732	633	1721	
1483	0	773	732	632	1752	
1484	0	773	732	632	1782	
1485	0	772	732	632	1808	
1486	0	771	732	632	1821	
1487	0	771	733	632	1827	
1488	0	772	732	631	1833	
1489	0	772	732	632	1842	
1490	0	773	733	632	1859	
1491	0	773	733	632	1881	
1492	0	773	733	632	1911	
1493	0	773	733	632	1956	
1494	0	773	733	632	2010	
1495	0	773	733	632	2073	
1496	0	773	733	632	2143	
1497	0	772	734	633	2220	
1498	0	774	734	633	2307	
1499	0	774	734	632	2389	
1500	0	774	735	633	2484	
1501	0	774	735	633	2566	
1502	0	774	735	633	2624	
1503	0	773	735	632	2660	
1504	0	772	735	632	2681	
1505	0	776	733	631	2673	
1506	0	774	732	631	2648	
1507	0	774	734	632	2612	
1508	0	773	733	630	2563	
1509	0	773	734	632	2517	
1510	0	773	732	632	2471	
1511	0	773	732	631	2434	
1512	0	772	734	631	2404	
1513	0	773	733	631	2377	
1514	0	772	733	631	2350	
1515	0	772	733	631	2328	
1516	0	773	734	631	2305	
1517	0	772	734	631	2284	
1518	0	772	734	630	2262	
1519	0	772	734	631	2242	
1520	0	773	733	631	2219	
1521	0	772	734	631	2195	
1522	0	773	734	631	2175	
1523	0	773	733	631	2154	
1524	0	773	734	631	2127	
1525	0	773	734	632	2098	
1526	0	772	734	631	2071	
1527	0	773	733	631	2046	
1528	0	772	733	631	2023	
1529	0	772	733	632	2002	
1530	0	772	733	631	1993	
1531	0	774	732	631	1984	
1532	0	774	733	631	1979	
1533	0	774	733	631	1975	
1534	0	775	733	632	1978	
1535	0	775	733	632	1987	
1536	0	774	734	631	1996	
1537	0	774	733	632	2008	
1538	0	774	734	632	2012	
1539	0	775	734	633	2013	
1540	0	773	733	632	2012	
1541	0	772	732	632	2019	
1542	0	773	734	633	2026	
1543	0	771	733	631	2023	
1544	0	769	734	632	2021	
1545	0	771	734	632	2017	
1546	0	770	733	633	2015	
1547	0	769	733	633	2012	
1548	0	769	732	633	2000	
1549	0	768	733	633	1989	
1550	0	769	733	633	1991	
1551	0	769	733	634	1989	
1552	0	769	733	633	1993	
1553	0	769	733	632	2000	
1554	0	768	734	634	2010	
1555	0	769	732	634	2010	
1556	0	770	733	634	2005	
1557	0	770	733	634	2001	
1558	0	772	733	634	2001	
1559	0	772	733	633	2000	
1560	0	774	733	634	2002	
1561	0	776	734	633	2004	
1562	0	776	734	634	2006	
1563	0	775	734	634	2008	
1564	0	776	733	634	2013	
1565	0	776	733	634	2016	
1566	0	777	733	634	2016	
1567	0	776	733	634	2013	
1568	0	776	732	633	2007	
1569	0	776	733	634	2002	
1570	0	776	733	634	2002	
1571	0	778	733	634	2005	
1572	0	776	733	634	2005	
1573	0	776	732	634	2009	
1574	0	775	733	634	2008	
1575	0	775	732	634	2006	
1576	0	776	732	634	2000	
1577	0	774	732	635	1993	
1578	0	773	732	634	1987	
1579	0	773	732	634	1975	
1580	0	772	732	635	1959	
1581	0	772	733	636	1952	
1582	0	771	731	636	1948	
1583	0	770	732	635	1953	
1584	0	769	732	636	1963	
1585	0	771	732	635	1968	
1586	0	771	731	635	1971	
1587	0	772	733	635	1974	
1588	0	771	732	635	1972	
1589	0	770	733	635	1977	
1590	0	772	733	635	1984	
1591	0	772	733	634	1994	
1592	0	773	733	635	1999	
1593	0	772	732	634	2000	
1594	0	771	732	635	1999	
1595	0	773	732	636	1995	
1596	0	773	730	635	1993	
1597	0	773	732	634	1991	
1598	0	774	733	635	1992	
1599	0	773	731	634	1987	
1600	0	772	732	634	1981	
1601	0	772	732	634	1985	
1602	0	772	732	635	1987	
1603	0	773	731	634	1986	
1604	0	772	734	634	1983	
1605	0	773	733	634	1979	
1606	0	775	734	634	1982	
1607	0	774	733	634	1989	
1608	0	774	733	634	1998	
1609	0	774	733	634	2000	
1610	0	775	734	634	2000	
1611	0	777	733	634	1989	
1612	0	775	735	634	1978	
1613	0	775	734	633	1965	
1614	0	774	735	634	1956	
1615	0	775	735	633	1954	
1616	0	775	735	633	1952	
1617	0	775	734	633	1951	
1618	0	775	734	633	1949	
1619	0	775	733	633	1952	
1620	0	775	734	633	1955	
1621	0	776	734	633	1962	
1622	0	775	734	633	1969	
1623	0	774	733	632	1976	
1624	0	774	734	632	1983	
1625	0	776	734	631	1988	
1626	0	777	734	631	1992	
1627	0	775	734	631	1995	
1628	0	775	733	631	1997	
1629	0	775	733	630	1995	
1630	0	775	733	630	1991	
1631	0	776	734	630	1980	
1632	0	776	733	630	1969	
1633	0	775	732	629	1955	
1634	0	774	733	631	1946	
1635	0	777	734	630	1933	
1636	0	776	733	629	1927	
1637	0	777	733	629	1927	
1638	0	776	732	629	1928	
1639	0	776	732	629	1936	
1640	0	776	733	629	1938	
1641	0	777	733	628	1947	
1642	0	776	732	629	1955	
1643	0	776	732	629	1963	
1644	0	775	733	629	1971	
1645	0	776	732	629	1975	
1646	0	777	732	628	1977	
1647	0	776	732	629	1976	
1648	0	776	731	628	1970	
1649	0	776	731	628	1967	
1650	0	775	731	628	1968	
1651	0	777	731	628	1967	
1652	0	775	731	629	1962	
1653	0	776	731	628	1958	
1654	0	776	731	628	1954	
1655	0	776	731	628	1949	
1656	0	776	731	627	1951	
1657	0	777	730	628	1953	
1658	0	775	730	628	1956	
1659	0	775	730	628	1956	
1660	0	775	730	628	1957	
1661	0	777	731	627	1958	
1662	0	776	731	628	1955	
1663	0	775	731	628	1949	
1664	0	774	731	628	1945	
1665	0	775	731	629	1941	
1666	0	775	732	629	1942	
1667	0	775	730	628	1937	
1668	0	775	732	628	1935	
1669	0	774	731	628	1927	
1670	0	774	731	628	1921	
1671	0	775	731	628	1911	
1672	0	775	731	628	1901	
1673	0	775	731	628	1903	
1674	0	774	730	628	1905	
1675	0	774	731	628	1913	
1676	0	775	731	628	1921	
1677	0	775	730	628	1928	
1678	0	776	732	628	1935	
1679	0	774	732	628	1936	
1680	0	774	731	628	1934	
1681	0	773	731	628	1930	
1682	0	774	732	628	1925	
1683	0	773	732	628	1922	
1684	0	772	732	629	1928	
1685	0	775	734	628	1932	
1686	0	774	731	628	1935	
1687	0	775	732	629	1936	
1688	0	774	731	629	1930	
1689	0	773	732	632	1923	
1690	0	774	731	629	1920	
1691	0	774	731	628	1915	
1692	0	774	730	629	1912	
1693	0	773	730	629	1908	
1694	0	774	731	629	1907	
1695	0	773	731	628	1910	
1696	0	774	730	628	1914	
1697	0	773	730	628	1919	
1698	0	773	731	628	1919	
1699	0	772	731	628	1916	
1700	0	773	731	628	1908	
1701	0	774	730	628	1907	
1702	0	773	730	629	1909	
1703	0	772	731	628	1910	
1704	0	773	731	629	1909	
1705	0	774	731	629	1911	
1706	0	773	731	628	1912	
1707	0	772	731	629	1914	
1708	0	773	731	629	1913	
1709	0	773	731	629	1910	
1710	0	773	731	629	1911	
1711	0	774	731	628	1903	
1712	0	773	730	629	1896	
1713	0	772	731	629	1892	
1714	0	772	731	629	1893	
1715	0	772	731	630	1896	
1716	0	773	732	630	1905	
1717	0	771	732	631	1909	
1718	0	772	732	630	1917	
1719	0	772	732	630	1922	
1720	0	772	733	630	1928	
1721	0	773	732	630	1932	
1722	0	771	731	630	1935	
1723	0	772	732	630	1933	
1724	0	772	732	631	1927	
1725	0	772	732	631	1916	
1726	0	773	732	630	1903	
1727	0	773	731	631	1896	
1728	0	773	732	631	1892	
1729	0	773	732	631	1891	
1730	0	773	732	631	1891	
1731	0	773	733	631	1887	
1732	0	771	732	632	1879	
1733	0	771	733	632	1876	
1734	0	771	732	633	1873	
1735	0	771	732	632	1874	
1736	0	772	732	631	1879	
1737	0	770	731	633	1885	
1738	0	771	732	632	1898	
1739	0	771	732	633	1910	
1740	0	771	732	633	1917	
1741	0	772	733	634	1926	
1742	0	770	732	633	1924	
1743	0	771	733	632	1920	
1744	0	770	734	633	1917	
1745	0	771	733	633	1910	
1746	0	770	733	633	1908	
1747	0	771	734	633	1911	
1748	0	770	732	633	1909	
1749	0	771	733	634	1914	
1750	0	772	735	634	1919	
1751	0	771	734	633	1923	
1752	0	772	733	633	1929	
1753	0	771	732	633	1928	
1754	0	771	733	634	1927	
1755	0	772	731	633	1929	
1756	0	772	733	633	1933	
1757	0	771	734	633	1939	
1758	0	771	732	633	1935	
1759	0	770	733	633	1935	
1760	0	771	735	633	1933	
1761	0	771	733	633	1938	
1762	0	771	733	633	1942	
1763	0	770	732	633	1939	
1764	0	770	733	632	1933	
1765	0	771	732	632	1928	
1766	0	771	733	632	1923	
1767	0	769	732	633	1918	
1768	0	772	733	633	1917	
1769	0	770	734	632	1915	
1770	0	770	733	631	1923	
1771	0	771	734	632	1930	
1772	0	770	733	632	1941	
1773	0	771	733	632	1947	
1774	0	771	734	632	1957	
1775	0	772	733	632	1967	
1776	0	772	732	632	1982	
1777	0	771	733	632	1993	
1778	0	771	733	632	1996	
1779	0	771	733	632	1998	
1780	0	771	733	632	1991	
1781	0	771	733	632	1989	
1782	0	770	733	633	1991	
1783	0	772	733	632	1991	
1784	0	771	733	632	1993	
1785	0	771	733	632	1999	
1786	0	771	732	632	2005	
1787	0	771	732	633	2011	
1788	0	771	733	632	2012	
1789	0	771	733	632	2013	
1790	0	771	733	632	2017	
1791	0	772	733	632	2023	
1792	0	770	733	632	2026	
1793	0	771	733	632	2034	
1794	0	771	732	632	2042	
1795	0	772	733	632	2047	
1796	0	772	734	632	2054	
1797	0	773	733	633	2061	
1798	0	771	733	632	2064	
1799	0	772	732	633	2067	
1800	0	770	733	632	2075	
1801	0	771	733	633	2086	
1802	0	769	732	633	2092	
1803	0	771	733	633	2098	
1804	0	769	732	632	2100	
1805	0	770	732	632	2104	
1806	0	772	733	633	2109	
1807	0	770	731	632	2107	
1808	0	770	732	632	2105	
1809	0	770	733	633	2103	
1810	0	771	734	632	2097	
1811	0	772	733	633	2096	
1812	0	772	733	633	2096	
1813	0	771	733	632	2095	
1814	0	772	733	631	2089	
1815	0	772	733	632	2087	
1816	0	772	732	632	2090	
1817	0	771	733	632	2099	
1818	0	772	734	632	2109	
1819	0	772	733	632	2112	
1820	0	772	733	632	2104	
1821	0	772	734	632	2099	
1822	0	771	733	632	2095	
1823	0	773	733	632	2091	
1824	0	772	733	632	2093	
1825	0	772	732	632	2096	
1826	0	772	732	632	2103	
1827	0	772	732	633	2111	
1828	0	772	732	632	2117	
1829	0	772	732	632	2119	
1830	0	771	733	631	2119	
1831	0	771	733	632	2107	
1832	0	771	733	632	2100	
1833	0	773	733	632	2095	
1834	0	772	733	632	2093	
1835	0	772	732	632	2092	
1836	0	773	732	632	2085	
1837	0	772	731	632	2076	
1838	0	773	733	633	2067	
1839	0	770	732	632	2060	
1840	0	773	732	632	2058	
1841	0	773	733	633	2064	
1842	0	771	732	633	2071	
1843	0	773	733	633	2084	
1844	0	772	733	632	2094	
1845	0	773	732	631	2104	
1846	0	774	733	632	2107	
1847	0	772	731	631	2106	
1848	0	773	732	631	2109	
1849	0	774	733	632	2119	
1850	0	774	732	632	2125	
1851	0	772	733	632	2125	
1852	0	772	733	633	2119	
1853	0	771	732	632	2103	
1854	0	771	732	632	2093	
1855	0	771	731	632	2089	
1856	0	772	733	632	2097	
1857	0	771	732	632	2102	
1858	0	772	732	632	2099	
1859	0	773	732	632	2100	
1860	0	775	732	632	2097	
1861	0	776	733	632	2100	
1862	0	775	732	632	2103	
1863	0	776	732	632	2099	
1864	0	777	733	632	2094	
1865	0	777	732	633	2090	
1866	0	777	733	632	2088	
1867	0	775	732	632	2095	
1868	0	774	732	632	2101	
1869	0	775	732	632	2105	
1870	0	774	731	632	2109	
1871	0	774	733	632	2110	
1872	0	773	732	633	2107	
1873	0	773	732	632	2104	
1874	0	773	732	632	2105	
1875	0	774	732	632	2109	
1876	0	774	733	632	2117	
1877	0	773	732	633	2123	
1878	0	774	733	633	2125	
1879	0	774	733	632	2120	
1880	0	773	733	632	2119	
1881	0	774	733	632	2117	
1882	0	775	734	632	2116	
1883	0	774	732	631	2109	
1884	0	773	734	632	2108	
1885	0	775	733	632	2100	
1886	0	775	733	632	2099	
1887	0	776	733	632	2096	
1888	0	775	732	632	2087	
1889	0	775	733	632	2084	
1890	0	776	732	632	2076	
1891	0	775	732	632	2074	
1892	0	775	732	632	2071	
1893	0	774	732	631	2067	
1894	0	774	733	632	2067	
1895	0	774	732	632	2060	
1896	0	774	732	631	2052	
1897	0	775	732	633	2053	
1898	0	774	731	631	2054	
1899	0	774	733	632	2062	
1900	0	775	732	632	2061	
1901	0	774	732	632	2063	
1902	0	774	732	632	2064	
1903	0	774	731	631	2065	
1904	0	774	732	631	2066	
1905	0	773	732	631	2061	
1906	0	774	733	632	2049	
1907	0	774	731	632	2037	
1908	0	775	732	632	2033	
1909	0	774	731	631	2032	
1910	0	776	731	632	2041	
1911	0	776	732	632	2044	
1912	0	776	731	632	2042	
1913	0	776	731	632	2035	
1914	0	776	731	632	2034	
1915	0	775	731	632	2035	
1916	0	777	733	631	2037	
1917	0	776	732	632	2043	
1918	0	777	732	632	2048	
1919	0	777	733	631	2056	
1920	0	776	733	631	2062	
1921	0	776	733	631	2072	
1922	0	776	732	632	2073	
1923	0	777	733	631	2070	
1924	0	777	733	632	2064	
1925	0	776	733	631	2061	
1926	0	775	733	631	2061	
1927	0	776	733	632	2061	
1928	0	775	733	631	2059	
1929	0	776	734	631	2055	
1930	0	775	734	631	2051	
1931	0	775	734	631	2041	
1932	0	776	734	631	2033	
1933	0	775	733	631	2025	
1934	0	775	733	631	2031	
1935	0	775	734	631	2039	
1936	0	776	734	631	2047	
1937	0	775	734	631	2060	
1938	0	776	734	630	2066	
1939	0	776	734	631	2073	
1940	0	776	735	630	2071	
1941	0	776	733	631	2072	
1942	0	775	734	631	2073	
1943	0	776	734	631	2069	
1944	0	777	734	631	2064	
1945	0	777	734	631	2061	
1946	0	778	734	631	2063	
1947	0	776	734	632	2070	
1948	0	777	734	632	2072	
1949	0	777	734	631	2074	
1950	0	778	734	631	2078	
1951	0	778	734	631	2077	
1952	0	776	733	631	2077	
1953	0	777	733	631	2073	
1954	0	777	733	631	2067	
1955	0	777	734	632	2057	
1956	0	778	733	632	2048	
1957	0	778	733	632	2039	
1958	0	778	733	631	2031	
1959	0	778	733	631	2024	
1960	0	777	733	631	2020	
1961	0	778	734	632	2022	
1962	0	778	733	632	2029	
1963	0	778	733	632	2035	
1964	0	779	731	632	2045	
1965	0	779	733	631	2047	
1966	0	778	732	631	2049	
1967	0	777	732	631	2052	
1968	0	779	733	632	2055	
1969	0	781	733	632	2056	
1970	0	779	732	631	2063	
1971	0	779	733	633	2068	
1972	0	778	732	632	2065	
1973	0	779	733	633	2061	
1974	0	781	732	631	2051	
1975	0	778	732	631	2053	
1976	0	778	733	632	2061	
1977	0	778	732	632	2066	
1978	0	778	732	633	2073	
1979	0	777	732	632	2068	
1980	0	778	732	632	2056	
1981	0	778	733	633	2049	
1982	0	778	732	632	2039	
1983	0	777	733	632	2032	
1984	0	777	733	631	2030	
1985	0	779	733	632	2032	
1986	0	780	734	632	2041	
1987	0	779	733	632	2050	
1988	0	779	734	632	2061	
1989	0	778	733	632	2063	
1990	0	777	734	632	2064	
1991	0	778	734	632	2058	
1992	0	776	733	632	2052	
1993	0	777	733	632	2051	
1994	0	777	733	632	2047	
1995	0	778	733	632	2051	
1996	0	777	734	632	2054	
1997	0	778	734	633	2063	
1998	0	778	733	632	2066	
1999	0	777	733	632	2074	
2000	0	777	735	632	2079	
2001	0	778	735	631	2081	
2002	0	777	734	632	2077	
2003	0	776	733	632	2068	
2004	0	777	733	632	2065	
2005	0	777	734	632	2068	
2006	0	778	734	633	2074	
2007	0	777	734	633	2076	
2008	0	777	733	632	2080	
2009	0	777	732	634	2083	
2010	0	777	734	633	2084	
2011	0	777	735	632	2083	
2012	0	777	734	632	2083	
2013	0	777	734	632	2076	
2014	0	776	734	632	2069	
2015	0	777	735	632	2062	
2016	0	778	735	633	2064	
2017	0	777	734	633	2072	
2018	0	777	734	632	2078	
2019	0	777	733	633	2087	
2020	0	777	734	633	2087	
2021	0	778	735	633	2092	
2022	0	778	733	633	2092	
2023	0	778	734	632	2084	
2024	0	777	734	632	2077	
2025	0	777	734	633	2072	
2026	0	777	735	633	2062	
2027	0	777	734	633	2058	
2028	0	777	734	632	2054	
2029	0	777	734	632	2060	
2030	0	777	735	632	2069	
2031	0	777	735	632	2075	
2032	0	777	734	632	2078	
2033	0	777	734	632	2082	
2034	0	776	734	632	2083	
2035	0	776	734	632	2081	
2036	0	778	735	633	2081	
2037	0	777	733	632	2072	
2038	0	777	734	632	2064	
2039	0	778	734	632	2058	
2040	0	778	734	632	2062	
2041	0	778	735	632	2068	
2042	0	778	734	633	2074	
2043	0	778	734	632	2073	
2044	0	777	734	632	2074	
2045	0	777	735	632	2075	
2046	0	778	735	633	2078	
2047	0	778	734	633	2077	
2048	0	777	734	632	2078	
2049	0	777	735	632	2078	
2050	0	777	735	632	2075	
2051	0	778	735	632	2071	
2052	0	777	735	632	2065	
2053	0	777	735	632	2059	
2054	0	777	735	632	2055	
2055	0	777	735	632	2054	
2056	0	778	735	633	2058	
2057	0	777	735	633	2067	
2058	0	777	734	633	2075	
2059	0	777	734	633	2080	
2060	0	777	734	633	2082	
2061	0	778	735	633	2080	
2062	0	777	734	633	2069	
2063	0	778	733	633	2062	
2064	0	779	732	633	2059	
2065	0	779	734	633	2057	
2066	0	779	734	633	2055	
2067	0	779	734	633	2054	
2068	0	778	734	632	2053	
2069	0	778	733	633	2057	
2070	0	778	734	633	2054	
2071	0	778	734	632	2059	
2072	0	779	734	633	2065	
2073	0	778	733	632	2066	
2074	0	779	732	633	2066	
2075	0	779	735	633	2061	
2076	0	779	733	633	2060	
2077	0	779	734	633	2064	
2078	0	778	733	632	2065	
2079	0	779	732	633	2076	
2080	0	780	733	632	2086	
2081	0	779	733	632	2101	
2082	0	779	734	634	2109	
2083	0	778	733	633	2109	
2084	0	778	732	634	2107	
2085	0	779	733	633	2096	
2086	0	779	734	633	2084	
2087	0	779	733	632	2072	
2088	0	782	733	632	2064	
2089	0	778	732	633	2060	
2090	0	778	734	632	2050	
2091	0	778	733	632	2048	
2092	0	777	734	633	2049	
2093	0	778	733	632	2054	
2094	0	777	732	632	2060	
2095	0	777	733	632	2068	
2096	0	778	733	632	2078	
2097	0	777	733	632	2087	
2098	0	777	733	632	2088	
2099	0	777	733	632	2086	
2100	0	776	734	632	2083	
2101	0	777	733	632	2074	
2102	0	778	733	632	2064	
2103	0	779	733	632	2057	
2104	0	779	733	632	2057	
2105	0	779	734	631	2058	
2106	0	779	734	631	2058	
2107	0	778	734	632	2064	
2108	0	779	733	632	2063	
2109	0	778	733	632	2066	
2110	0	778	733	632	2065	
2111	0	778	733	631	2069	
2112	0	778	733	631	2077	
2113	0	778	732	631	2080	
2114	0	778	731	632	2081	
2115	0	778	733	632	2080	
2116	0	778	733	631	2077	
2117	0	778	733	632	2078	
2118	0	778	733	632	2079	
2119	0	777	734	631	2072	
2120	0	777	733	631	2068	
2121	0	777	734	632	2066	
2122	0	776	732	631	2063	
2123	0	778	733	632	2066	
2124	0	778	733	631	2071	
2125	0	778	734	631	2076	
2126	0	779	734	632	2086	
2127	0	778	734	631	2095	
2128	0	779	734	632	2108	
2129	0	782	733	631	2109	
2130	0	778	733	631	2110	
2131	0	777	734	631	2109	
2132	0	777	732	632	2107	
2133	0	777	733	631	2098	
2134	0	777	731	632	2095	
2135	0	778	733	631	2091	
2136	0	778	733	632	2088	
2137	0	778	732	631	2079	
2138	0	777	732	631	2064	
2139	0	777	733	631	2049	
2140	0	777	733	631	2046	
2141	0	778	734	631	2045	
2142	0	777	733	631	2048	
2143	0	777	733	630	2049	
2144	0	777	733	630	2048	
2145	0	777	733	631	2042	
2146	0	777	734	631	2035	
2147	0	778	732	631	2037	
2148	0	777	733	631	2041	
2149	0	777	733	631	2045	
2150	0	777	734	630	2054	
2151	0	777	734	630	2062	
2152	0	777	733	631	2075	
2153	0	778	733	631	2082	
2154	0	777	733	631	2089	
2155	0	777	734	632	2090	
2156	0	778	734	632	2085	
2157	0	777	732	632	2081	
2158	0	777	732	631	2079	
2159	0	777	732	632	2085	
2160	0	778	735	631	2087	
2161	0	777	734	631	2089	
2162	0	777	733	632	2093	
2163	0	777	733	631	2088	
2164	0	777	733	631	2082	
2165	0	777	733	631	2074	
2166	0	777	734	631	2069	
2167	0	776	733	631	2069	
2168	0	776	733	631	2069	
2169	0	777	733	631	2072	
2170	0	777	733	631	2073	
2171	0	778	734	631	2072	
2172	0	776	732	631	2070	
2173	0	777	733	630	2063	
2174	0	777	733	631	2059	
2175	0	777	733	631	2056	
2176	0	778	733	631	2053	
2177	0	777	732	632	2051	
2178	0	777	732	631	2045	
2179	0	777	733	631	2043	
2180	0	778	732	631	2047	
2181	0	777	733	631	2053	
2182	0	777	732	631	2062	
2183	0	777	733	631	2064	
2184	0	777	733	632	2067	
2185	0	778	733	632	2059	
2186	0	778	733	631	2054	
2187	0	778	732	632	2051	
2188	0	777	732	631	2052	
2189	0	777	732	632	2061	
2190	0	778	733	631	2065	
2191	0	776	732	632	2072	
2192	0	778	733	631	2083	
2193	0	777	733	631	2086	
2194	0	777	733	631	2092	
2195	0	778	733	631	2090	
2196	0	778	734	631	2083	
2197	0	778	732	632	2082	
2198	0	778	733	632	2085	
2199	0	781	732	631	2086	
2200	0	777	732	631	2091	
2201	0	778	733	632	2093	
2202	0	777	732	632	2090	
2203	0	777	733	632	2091	
2204	0	777	733	632	2085	
2205	0	776	732	631	2079	
2206	0	777	733	632	2071	
2207	0	776	732	631	2058	
2208	0	776	732	631	2047	
2209	0	776	732	632	2040	
2210	0	777	733	632	2031	
2211	0	775	733	632	2019	
2212	0	776	733	632	2013	
2213	0	775	732	631	2007	
2214	0	775	733	631	2009	
2215	0	776	733	630	2008	
2216	0	776	733	632	2010	
2217	0	776	733	632	2016	
2218	0	776	733	631	2016	
2219	0	776	733	632	2020	
2220	0	776	733	632	2022	
2221	0	776	733	632	2025	
2222	0	776	733	632	2029	
2223	0	775	733	632	2028	
2224	0	775	733	632	2023	
2225	0	776	733	632	2015	
2226	0	777	733	632	2008	
2227	0	776	733	631	2001	
2228	0	776	734	632	1998	
2229	0	776	733	632	1992	
2230	0	776	733	632	1987	
2231	0	777	733	632	1980	
2232	0	776	732	631	1970	
2233	0	777	734	632	1967	
2234	0	776	733	631	1966	
2235	0	776	733	632	1969	
2236	0	776	733	632	1974	
2237	0	776	732	632	1973	
2238	0	777	734	631	1975	
2239	0	775	733	631	1979	
2240	0	775	733	631	1990	
2241	0	774	733	631	1998	
2242	0	775	734	632	2011	
2243	0	775	733	631	2022	
2244	0	774	733	632	2040	
2245	0	775	734	634	2048	
2246	0	775	733	632	2051	
2247	0	775	734	632	2050	
2248	0	774	733	631	2041	
2249	0	774	733	632	2038	
2250	0	775	733	632	2030	
2251	0	776	733	631	2024	
2252	0	775	733	631	2021	
2253	0	775	733	631	2019	
2254	0	776	732	632	2019	
2255	0	775	733	632	2022	
2256	0	776	733	631	2022	
2257	0	776	732	631	2025	
2258	0	776	733	631	2024	
2259	0	776	732	631	2026	
2260	0	775	733	631	2027	
2261	0	776	733	632	2029	
2262	0	776	732	631	2032	
2263	0	776	732	632	2034	
2264	0	776	733	632	2039	
2265	0	776	733	632	2043	
2266	0	776	733	632	2050	
2267	0	776	732	632	2059	
2268	0	775	733	632	2067	
2269	0	775	733	632	2070	
2270	0	775	733	632	2069	
2271	0	775	733	632	2071	
2272	0	775	731	632	2074	
2273	0	775	732	632	2074	
2274	0	774	732	632	2079	
2275	0	774	733	632	2081	
2276	0	774	733	632	2082	
2277	0	774	733	631	2074	
2278	0	774	732	631	2066	
2279	0	774	733	632	2061	
2280	0	775	733	632	2061	
2281	0	776	733	632	2068	
2282	0	775	732	631	2078	
2283	0	776	733	632	2085	
2284	0	775	733	632	2092	
2285	0	774	733	632	2095	
2286	0	774	733	632	2098	
2287	0	774	732	631	2098	
2288	0	774	732	632	2094	
2289	0	775	733	632	2089	
2290	0	775	733	632	2086	
2291	0	776	733	632	2086	
2292	0	775	732	631	2088	
2293	0	775	733	631	2091	
2294	0	775	733	631	2097	
2295	0	774	733	631	2104	
2296	0	775	733	632	2111	
2297	0	776	733	632	2117	
2298	0	775	733	632	2115	
2299	0	775	733	632	2111	
2300	0	775	733	632	2111	
2301	0	776	734	632	2108	
2302	0	775	732	632	2106	
2303	0	775	732	632	2106	
2304	0	775	732	633	2110	
2305	0	775	733	635	2109	
2306	0	775	733	632	2107	
2307	0	775	733	631	2107	
2308	0	774	733	632	2103	
2309	0	774	733	632	2100	
2310	0	774	734	634	2091	
2311	0	775	733	631	2087	
2312	0	774	733	632	2092	
2313	0	773	732	632	2091	
2314	0	773	732	632	2092	
2315	0	775	733	632	2086	
2316	0	774	732	632	2079	
2317	0	775	733	632	2075	
2318	0	774	732	631	2069	
2319	0	774	732	631	2065	
2320	0	774	733	632	2058	
2321	0	774	733	632	2044	
2322	0	775	733	632	2030	
2323	0	774	732	631	2008	
2324	0	774	732	632	1994	
2325	0	775	733	633	1976	
2326	0	775	733	632	1965	
2327	0	775	733	632	1959	
2328	0	774	732	631	1953	
2329	0	774	732	632	1954	
2330	0	775	733	633	1942	
2331	0	775	733	632	1923	
2332	0	774	733	632	1900	
2333	0	773	732	631	1866	
2334	0	772	733	631	1834	
2335	0	774	734	631	1801	
2336	0	773	732	632	1767	
2337	0	773	732	630	1739	
2338	0	773	732	631	1715	
2339	0	772	732	631	1703	
2340	0	772	732	630	1706	
2341	0	773	732	630	1726	
2342	0	773	732	630	1756	
2343	0	774	732	630	1783	
2344	0	774	732	630	1810	
2345	0	774	732	631	1826	
2346	0	774	733	630	1835	
2347	0	773	732	630	1833	
2348	0	774	732	630	1828	
2349	0	774	732	630	1827	
2350	0	774	732	631	1832	
2351	0	774	732	631	1849	
2352	0	774	731	631	1880	
2353	0	774	732	631	1920	
2354	0	774	732	631	1968	
2355	0	774	732	631	2025	
2356	0	774	732	631	2088	
2357	0	775	732	631	2159	
2358	0	775	732	631	2242	
2359	0	775	733	631	2335	
2360	0	775	733	631	2437	
2361	0	775	734	631	2540	
2362	0	775	733	632	2623	
2363	0	775	733	632	2683	
2364	0	774	733	631	2720	
2365	0	773	733	631	2737	
2366	0	775	733	631	2736	
2367	0	775	731	630	2712	
2368	0	775	731	630	2678	
2369	0	775	732	631	2639	
2370	0	776	733	631	2591	
2371	0	774	732	631	2540	
2372	0	774	732	631	2496	
2373	0	774	731	630	2447	
2374	0	773	731	631	2407	
2375	0	774	732	631	2365	
2376	0	774	731	632	2325	
2377	0	774	732	631	2293	
2378	0	773	731	630	2249	
2379	0	772	731	631	2204	
2380	0	772	732	629	2161	
2381	0	773	732	629	2127	
2382	0	772	732	629	2102	
2383	0	773	732	630	2084	
2384	0	774	732	629	2078	
2385	0	773	731	629	2069	
2386	0	772	731	629	2060	
2387	0	773	731	629	2053	
2388	0	773	731	630	2047	
2389	0	773	731	629	2047	
2390	0	773	731	629	2048	
2391	0	773	731	629	2049	
2392	0	773	731	629	2049	
2393	0	773	732	630	2047	
2394	0	774	732	629	2046	
2395	0	773	731	629	2045	
2396	0	773	732	628	2042	
2397	0	773	731	629	2041	
2398	0	773	731	629	2040	
2399	0	773	731	629	2043	
2400	0	772	731	630	2046	
2401	0	772	731	630	2051	
2402	0	770	731	629	2056	
2403	0	769	731	630	2059	
2404	0	768	731	630	2055	
2405	0	768	731	631	2056	
2406	0	770	731	631	2058	
2407	0	769	731	632	2055	
2408	0	770	731	630	2049	
2409	0	769	732	632	2042	
2410	0	771	732	631	2031	
2411	0	770	732	631	2020	
2412	0	772	732	632	2018	
2413	0	771	731	631	2012	
2414	0	771	731	632	2014	
2415	0	772	732	633	2011	
2416	0	772	731	632	2009	
2417	0	773	732	632	2009	
2418	0	772	731	632	2002	
2419	0	772	731	633	1999	
2420	0	774	731	630	1999	
2421	0	774	730	632	1996	
2422	0	775	731	633	2003	
2423	0	774	730	632	2005	
2424	0	775	730	631	2012	
2425	0	775	730	632	2016	
2426	0	776	731	632	2023	
2427	0	775	730	631	2023	
2428	0	776	733	632	2023	
2429	0	775	731	632	2030	
2430	0	776	731	632	2033	
2431	0	775	731	633	2033	
2432	0	775	730	632	2034	
2433	0	776	732	633	2029	
2434	0	775	731	633	2024	
2435	0	776	732	632	2012	
2436	0	775	731	633	2004	
2437	0	773	731	632	1999	
2438	0	773	731	633	1994	
2439	0	773	730	632	1989	
2440	0	773	731	632	1990	
2441	0	773	731	633	1991	
2442	0	774	731	632	1991	
2443	0	773	731	632	1985	
2444	0	773	730	632	1980	
2445	0	772	730	632	1974	
2446	0	773	731	634	1976	
2447	0	772	730	634	1986	
2448	0	771	730	633	1998	
2449	0	771	731	633	2004	
2450	0	771	730	633	2006	
2451	0	771	730	634	2009	
2452	0	771	730	634	2010	
2453	0	771	730	634	2007	
2454	0	772	730	634	2004	
2455	0	771	729	634	2002	
2456	0	771	730	634	2003	
2457	0	770	730	634	2007	
2458	0	770	729	634	2011	
2459	0	770	729	635	2016	
2460	0	770	729	633	2018	
2461	0	772	730	635	2010	
2462	0	771	730	635	2001	
2463	0	769	729	634	1990	
2464	0	770	730	633	1984	
2465	0	769	730	633	1982	
2466	0	771	731	634	1983	
2467	0	770	730	632	1979	
2468	0	772	731	634	1979	
2469	0	770	730	633	1976	
2470	0	770	731	633	1978	
2471	0	771	731	633	1977	
2472	0	770	730	633	1972	
2473	0	771	731	634	1968	
2474	0	771	730	633	1959	
2475	0	771	732	632	1956	
2476	0	771	731	633	1953	
2477	0	772	731	633	1953	
2478	0	771	730	633	1947	
2479	0	771	730	632	1943	
2480	0	770	730	632	1944	
2481	0	770	730	632	1944	
2482	0	770	730	632	1952	
2483	0	770	730	631	1959	
2484	0	771	730	631	1969	
2485	0	770	730	630	1980	
2486	0	770	731	630	1991	
2487	0	769	730	631	2000	
2488	0	770	730	630	2005	
2489	0	769	730	630	2010	
2490	0	770	730	630	2012	
2491	0	771	730	631	2014	
2492	0	771	730	630	2014	
2493	0	772	730	629	2015	
2494	0	772	729	629	2018	
2495	0	772	730	629	2017	
2496	0	772	729	629	2012	
2497	0	771	729	629	2006	
2498	0	772	729	629	1996	
2499	0	772	728	629	1986	
2500	0	772	729	629	1976	
2501	0	771	729	630	1968	
2502	0	771	728	629	1966	
2503	0	772	729	629	1963	
2504	0	771	729	629	1961	
2505	0	771	729	629	1963	
2506	0	770	729	629	1961	
2507	0	771	729	629	1961	
2508	0	771	728	628	1958	
2509	0	770	727	628	1957	
2510	0	770	728	629	1957	
2511	0	771	728	629	1960	
2512	0	770	728	628	1964	
2513	0	772	728	628	1969	
2514	0	771	728	628	1965	
2515	0	771	728	628	1952	
2516	0	771	728	628	1938	
2517	0	770	728	629	1931	
2518	0	771	728	629	1931	
2519	0	771	728	628	1936	
2520	0	771	728	628	1943	
2521	0	771	728	629	1951	
2522	0	770	728	628	1958	
2523	0	771	728	628	1959	
2524	0	771	729	627	1966	
2525	0	771	728	628	1966	
2526	0	770	729	629	1965	
2527	0	770	729	628	1962	
2528	0	770	729	628	1951	
2529	0	770	729	628	1937	
2530	0	770	729	628	1923	
2531	0	770	729	629	1921	
2532	0	771	730	628	1927	
2533	0	770	729	628	1929	
2534	0	770	730	628	1936	
2535	0	769	730	628	1944	
2536	0	771	730	628	1950	
2537	0	770	730	628	1952	
2538	0	770	731	628	1957	
2539	0	769	730	628	1954	
2540	0	769	731	628	1954	
2541	0	770	732	628	1957	
2542	0	769	731	628	1957	
2543	0	770	732	629	1959	
2544	0	768	732	629	1952	
2545	0	768	731	629	1951	
2546	0	770	732	629	1951	
2547	0	769	732	629	1945	
2548	0	769	733	629	1940	
2549	0	771	734	628	1943	
2550	0	771	733	630	1943	
2551	0	771	733	630	1940	
2552	0	772	734	631	1943	
2553	0	771	733	629	1942	
2554	0	771	733	628	1948	
2555	0	771	734	630	1950	
2556	0	771	734	631	1951	
2557	0	772	735	631	1955	
2558	0	771	734	631	1951	
2559	0	771	734	629	1949	
2560	0	770	735	631	1947	
2561	0	772	735	631	1949	
2562	0	772	735	631	1943	
2563	0	772	734	631	1935	
2564	0	772	734	630	1928	
2565	0	772	735	631	1915	
2566	0	772	735	632	1913	
2567	0	772	735	631	1918	
2568	0	773	737	632	1921	
2569	0	773	739	632	1918	
2570	0	772	736	632	1914	
2571	0	772	737	632	1910	
2572	0	770	737	632	1905	
2573	0	772	739	632	1898	
2574	0	771	736	631	1895	
2575	0	771	736	633	1887	
2576	0	771	737	634	1887	
2577	0	770	738	633	1893	
2578	0	771	738	633	1897	
2579	0	771	739	634	1903	
2580	0	770	738	634	1916	
2581	0	771	739	636	1925	
2582	0	771	739	635	1934	
2583	0	769	739	635	1941	
2584	0	769	739	635	1947	
2585	0	769	740	636	1942	
2586	0	769	740	637	1937	
2587	0	768	740	636	1937	
2588	0	768	741	636	1933	
2589	0	769	741	637	1933	
2590	0	769	740	637	1935	
2591	0	767	741	638	1938	
2592	0	767	741	638	1939	
2593	0	767	741	637	1941	
2594	0	768	741	637	1945	
2595	0	767	741	639	1948	
2596	0	767	742	639	1948	
2597	0	767	742	638	1948	
2598	0	767	742	638	1943	
2599	0	767	742	637	1936	
2600	0	767	743	641	1930	
2601	0	766	742	639	1931	
2602	0	766	742	639	1933	
2603	0	767	743	640	1936	
2604	0	769	743	639	1936	
2605	0	767	743	639	1939	
2606	0	767	744	639	1945	
2607	0	766	742	639	1949	
2608	0	767	743	639	1955	
2609	0	767	743	637	1961	
2610	0	767	744	639	1959	
2611	0	766	744	639	1958	
2612	0	767	744	639	1961	
2613	0	765	743	639	1956	
2614	0	765	744	637	1956	
2615	0	766	744	639	1952	
2616	0	764	744	639	1950	
2617	0	765	745	639	1949	
2618	0	765	744	638	1948	
2619	0	765	743	637	1952	
2620	0	766	744	638	1954	
2621	0	764	743	637	1956	
2622	0	767	744	638	1960	
2623	0	766	743	637	1958	
2624	0	765	743	637	1958	
2625	0	765	743	637	1961	
2626	0	766	744	637	1970	
2627	0	764	743	636	1974	
2628	0	766	745	636	1980	
2629	0	765	743	635	1988	
2630	0	766	743	636	1992	
2631	0	766	742	635	1993	
2632	0	766	742	635	1995	
2633	0	766	743	635	1997	
2634	0	765	742	634	2001	
2635	0	765	741	634	2004	
2636	0	764	741	635	2006	
2637	0	765	741	633	2013	
2638	0	765	741	633	2020	
2639	0	765	740	633	2023	
2640	0	764	740	633	2029	
2641	0	764	741	633	2032	
2642	0	764	740	632	2031	
2643	0	764	739	632	2026	
2644	0	765	739	631	2023	
2645	0	765	739	631	2028	
2646	0	765	739	631	2035	
2647	0	765	738	631	2042	
2648	0	766	738	630	2048	
2649	0	767	739	629	2053	
2650	0	766	738	630	2056	
2651	0	765	739	631	2056	
2652	0	766	738	630	2053	
2653	0	766	738	629	2051	
2654	0	766	738	628	2053	
2655	0	766	738	629	2058	
2656	0	766	738	629	2062	
2657	0	767	738	628	2070	
2658	0	768	738	629	2078	
2659	0	768	740	628	2077	
2660	0	768	737	629	2084	
2661	0	768	737	628	2094	
2662	0	769	737	629	2109	
2663	0	769	736	628	2118	
2664	0	769	736	626	2131	
2665	0	770	737	631	2134	
2666	0	769	736	628	2132	
2667	0	770	736	628	2127	
2668	0	769	735	627	2118	
2669	0	769	736	625	2118	
2670	0	770	736	627	2118	
2671	0	770	735	626	2115	
2672	0	771	735	627	2120	
2673	0	770	735	627	2119	
2674	0	771	735	625	2123	
2675	0	771	735	627	2120	
2676	0	771	734	627	2117	
2677	0	773	734	627	2119	
2678	0	772	733	627	2117	
2679	0	772	734	625	2120	
2680	0	773	734	626	2118	
2681	0	771	734	627	2113	
2682	0	772	733	627	2109	
2683	0	773	733	626	2101	
2684	0	773	733	626	2098	
2685	0	773	733	626	2094	
2686	0	772	733	626	2091	
2687	0	773	733	626	2086	
2688	0	774	733	626	2077	
2689	0	773	733	626	2070	
2690	0	773	732	627	2065	
2691	0	773	733	628	2077	
2692	0	774	733	628	2096	
2693	0	774	732	627	2120	
2694	0	775	732	627	2139	
2695	0	775	732	628	2151	
2696	0	774	732	627	2158	
2697	0	775	732	626	2164	
2698	0	774	732	627	2172	
2699	0	774	732	626	2182	
2700	0	774	732	627	2189	
2701	0	775	732	628	2195	
2702	0	775	732	627	2197	
2703	0	775	732	627	2198	
2704	0	774	732	627	2196	
2705	0	776	732	627	2184	
2706	0	775	732	627	2175	
2707	0	774	731	626	2162	
2708	0	774	731	627	2156	
2709	0	775	731	625	2156	
2710	0	776	732	628	2150	
2711	0	774	732	627	2153	
2712	0	775	732	628	2157	
2713	0	775	731	627	2155	
2714	0	775	731	626	2156	
2715	0	775	732	628	2154	
2716	0	773	732	628	2148	
2717	0	774	731	628	2146	
2718	0	774	732	628	2143	
2719	0	773	732	628	2140	
2720	0	774	732	630	2141	
2721	0	774	732	630	2142	
2722	0	775	732	629	2143	
2723	0	777	732	629	2142	
2724	0	778	732	629	2143	
2725	0	778	733	630	2143	
2726	0	778	733	630	2140	
2727	0	777	733	629	2138	
2728	0	777	733	630	2131	
2729	0	777	733	629	2123	
2730	0	776	733	629	2110	
2731	0	775	733	631	2097	
2732	0	775	733	630	2092	
2733	0	774	733	631	2096	
2734	0	774	733	631	2107	
2735	0	773	733	632	2116	
2736	0	773	733	632	2122	
2737	0	772	733	632	2123	
2738	0	771	732	632	2120	
2739	0	771	733	633	2118	
2740	0	771	733	634	2124	
2741	0	771	733	634	2130	
2742	0	771	733	633	2140	
2743	0	771	734	634	2149	
2744	0	771	733	633	2151	
2745	0	770	733	633	2151	
2746	0	770	733	633	2148	
2747	0	771	734	634	2140	
2748	0	770	733	633	2121	
2749	0	771	732	634	2109	
2750	0	772	734	635	2095	
2751	0	770	733	634	2094	
2752	0	771	733	635	2097	
2753	0	771	732	634	2092	
2754	0	772	732	632	2091	
2755	0	773	733	634	2091	
2756	0	771	733	634	2096	
2757	0	772	733	634	2108	
2758	0	771	732	633	2113	
2759	0	771	732	634	2121	
2760	0	773	733	633	2122	
2761	0	771	733	635	2123	
2762	0	771	732	633	2120	
2763	0	771	733	633	2117	
2764	0	771	732	634	2116	
2765	0	769	732	634	2116	
2766	0	769	733	634	2119	
2767	0	770	732	633	2122	
2768	0	770	731	633	2127	
2769	0	769	731	633	2134	
2770	0	768	731	633	2134	
2771	0	769	732	634	2136	
2772	0	769	731	633	2138	
2773	0	769	731	633	2138	
2774	0	770	731	633	2138	
2775	0	769	731	633	2137	
2776	0	769	731	633	2132	
2777	0	769	731	632	2129	
2778	0	770	731	632	2124	
2779	0	770	731	632	2120	
2780	0	768	731	632	2120	
2781	0	769	731	633	2117	
2782	0	770	730	632	2113	
2783	0	770	730	632	2110	
2784	0	770	730	632	2105	
2785	0	772	730	632	2104	
2786	0	772	730	633	2100	
2787	0	772	729	631	2098	
2788	0	773	729	633	2098	
2789	0	773	729	632	2092	
2790	0	772	728	633	2088	
2791	0	772	728	633	2087	
2792	0	774	729	633	2088	
2793	0	774	728	633	2083	
2794	0	774	728	632	2087	
2795	0	776	728	633	2088	
2796	0	776	727	632	2086	
2797	0	777	728	633	2090	
2798	0	776	727	632	2088	
2799	0	777	727	633	2091	
2800	0	777	728	633	2092	
2801	0	777	727	633	2089	
2802	0	778	727	633	2089	
2803	0	777	727	632	2087	
2804	0	778	727	633	2082	
2805	0	779	726	633	2079	
2806	0	778	727	633	2076	
2807	0	780	727	633	2076	
2808	0	779	726	632	2073	
2809	0	778	725	633	2076	
2810	0	779	724	632	2073	
2811	0	778	725	633	2073	
2812	0	779	725	631	2072	
2813	0	778	725	632	2067	
2814	0	777	725	632	2060	
2815	0	777	724	632	2050	
2816	0	778	724	632	2040	
2817	0	778	724	631	2032	
2818	0	778	723	631	2032	
2819	0	777	723	631	2034	
2820	0	777	723	631	2041	
2821	0	777	723	631	2048	
2822	0	777	723	630	2057	
2823	0	778	722	631	2064	
2824	0	778	722	631	2067	
2825	0	779	721	632	2071	
2826	0	778	721	631	2078	
2827	0	779	720	630	2086	
2828	0	779	720	630	2088	
2829	0	778	720	630	2090	
2830	0	779	720	630	2086	
2831	0	778	720	630	2076	
2832	0	778	720	629	2054	
2833	0	779	720	629	2030	
2834	0	778	720	629	2015	
2835	0	778	719	629	2004	
2836	0	778	719	629	2001	
2837	0	779	719	630	1994	
2838	0	780	718	629	1991	
2839	0	779	717	629	1991	
2840	0	780	717	630	1997	
2841	0	780	718	630	2005	
2842	0	779	717	630	2007	
2843	0	781	718	631	2018	
2844	0	781	719	630	2031	
2845	0	782	716	631	2047	
2846	0	782	717	632	2063	
2847	0	781	716	630	2074	
2848	0	780	716	632	2085	
2849	0	779	715	632	2099	
2850	0	781	716	632	2107	
2851	0	780	715	632	2113	
2852	0	781	715	633	2120	
2853	0	779	714	632	2123	
2854	0	780	713	632	2128	
2855	0	782	714	633	2128	
2856	0	781	713	633	2129	
2857	0	781	713	632	2127	
2858	0	781	713	633	2126	
2859	0	780	712	635	2121	
2860	0	780	712	635	2120	
2861	0	779	711	636	2113	
2862	0	779	711	635	2107	
2863	0	779	711	636	2103	
2864	0	778	711	637	2101	
2865	0	779	711	637	2097	
2866	0	779	711	637	2094	
2867	0	779	710	637	2088	
2868	0	779	710	637	2082	
2869	0	780	710	638	2075	
2870	0	780	709	638	2072	
2871	0	779	709	639	2068	
2872	0	779	709	638	2072	
2873	0	779	709	638	2073	
2874	0	779	708	639	2076	
2875	0	779	708	639	2078	
2876	0	779	708	639	2081	
2877	0	778	707	640	2082	
2878	0	779	707	641	2085	
2879	0	781	706	641	2089	
2880	0	781	706	642	2093	
2881	0	779	706	643	2096	
2882	0	779	705	642	2100	
2883	0	778	705	644	2102	
2884	0	781	703	644	2101	
2885	0	781	703	645	2101	
2886	0	780	704	645	2099	
2887	0	780	703	643	2099	
2888	0	781	703	644	2096	
2889	0	781	703	645	2096	
2890	0	781	703	645	2094	
2891	0	781	703	646	2095	
2892	0	781	703	645	2095	
2893	0	780	702	646	2094	
2894	0	782	702	646	2092	
2895	0	782	702	647	2090	
2896	0	782	702	646	2088	
2897	0	781	702	646	2085	
2898	0	781	701	647	2084	
2899	0	781	701	647	2085	
2900	0	781	701	647	2087	
2901	0	781	701	647	2090	
2902	0	781	701	647	2092	
2903	0	782	702	648	2091	
2904	0	782	701	648	2091	
2905	0	781	702	648	2090	
2906	0	781	702	647	2093	
2907	0	781	702	646	2089	
2908	0	779	702	648	2086	
2909	0	781	701	648	2078	
2910	0	781	702	648	2070	
2911	0	779	702	648	2072	
2912	0	779	703	648	2079	
2913	0	779	702	648	2082	
2914	0	779	702	647	2085	
2915	0	779	702	647	2087	
2916	0	780	703	648	2091	
2917	0	778	703	646	2089	
2918	0	776	704	648	2095	
2919	0	778	703	646	2097	
2920	0	778	704	647	2099	
2921	0	777	704	647	2096	
2922	0	777	703	645	2092	
2923	0	776	704	646	2091	
2924	0	777	704	646	2090	
2925	0	776	704	645	2085	
2926	0	777	704	646	2075	
2927	0	776	704	645	2055	
2928	0	776	704	645	2034	
2929	0	775	705	645	2015	
2930	0	776	705	645	2000	
2931	0	774	705	645	1990	
2932	0	774	705	644	1991	
2933	0	773	706	644	1997	
2934	0	774	706	644	2001	
2935	0	775	706	644	2008	
2936	0	773	706	644	2014	
2937	0	773	706	644	2024	
2938	0	772	706	644	2034	
2939	0	773	706	643	2043	
2940	0	771	706	643	2049	
2941	0	772	706	643	2054	
2942	0	772	706	642	2062	
2943	0	772	707	642	2075	
2944	0	772	707	643	2090	
2945	0	772	707	645	2108	
2946	0	773	707	643	2128	
2947	0	772	707	642	2146	
2948	0	772	708	643	2162	
2949	0	776	707	642	2167	
2950	0	771	706	642	2166	
2951	0	772	708	643	2160	
2952	0	771	707	643	2148	
2953	0	771	708	643	2139	
2954	0	772	708	642	2129	
2955	0	772	707	642	2126	
2956	0	772	709	643	2126	
2957	0	770	709	642	2123	
2958	0	769	709	643	2123	
2959	0	771	708	643	2117	
2960	0	770	707	642	2117	
2961	0	770	709	643	2112	
2962	0	769	709	642	2107	
2963	0	767	710	642	2107	
2964	0	770	710	642	2104	
2965	0	769	708	641	2107	
2966	0	769	709	642	2108	
2967	0	769	710	641	2105	
2968	0	768	710	641	2099	
2969	0	769	710	641	2100	
2970	0	770	711	642	2104	
2971	0	769	710	641	2108	
2972	0	769	710	641	2111	
2973	0	768	709	640	2108	
2974	0	768	710	640	2104	
2975	0	768	710	640	2101	
2976	0	769	710	640	2098	
2977	0	768	710	639	2094	
2978	0	767	711	640	2095	
2979	0	771	710	638	2090	
2980	0	768	710	638	2093	
2981	0	769	712	639	2093	
2982	0	769	711	639	2090	
2983	0	768	712	639	2084	
2984	0	769	714	638	2074	
2985	0	768	712	639	2068	
2986	0	769	711	639	2073	
2987	0	767	710	639	2078	
2988	0	767	711	639	2080	
2989	0	768	711	638	2087	
2990	0	770	711	639	2090	
2991	0	769	711	639	2091	
2992	0	769	710	638	2093	
2993	0	768	712	639	2092	
2994	0	768	712	637	2090	
2995	0	770	711	638	2089	
2996	0	768	712	638	2082	
2997	0	767	711	638	2074	
2998	0	768	712	638	2069	
2999	0	769	711	638	2066	
3000	0	770	712	637	2067	
3001	0	769	712	638	2066	
3002	0	769	712	638	2062	
3003	0	769	712	638	2062	
3004	0	770	712	638	2063	
3005	0	771	712	638	2066	
3006	0	770	713	639	2072	
3007	0	770	713	638	2072	
3008	0	771	713	639	2072	
3009	0	772	712	638	2068	
3010	0	773	712	638	2068	
3011	0	771	712	639	2068	
3012	0	772	713	638	2069	
3013	0	772	712	639	2066	
3014	0	773	712	638	2066	
3015	0	774	712	639	2069	
3016	0	773	712	640	2071	
3017	0	773	712	640	2067	
3018	0	772	713	641	2066	
3019	0	774	715	640	2063	
3020	0	774	712	639	2065	
3021	0	772	711	640	2068	
3022	0	773	712	641	2072	
3023	0	772	711	640	2075	
3024	0	773	711	641	2077	
3025	0	774	711	641	2078	
3026	0	773	710	641	2074	
3027	0	773	712	641	2073	
3028	0	773	711	641	2072	
3029	0	774	711	642	2075	
3030	0	774	712	642	2075	
3031	0	773	711	642	2073	
3032	0	774	710	642	2071	
3033	0	773	711	643	2072	
3034	0	773	711	645	2072	
3035	0	773	711	643	2072	
3036	0	772	710	644	2070	
3037	0	774	710	644	2068	
3038	0	773	710	643	2067	
3039	0	773	710	644	2069	
3040	0	773	710	644	2075	
3041	0	772	709	645	2074	
3042	0	772	709	644	2074	
3043	0	772	710	646	2071	
3044	0	775	709	644	2072	
3045	0	775	709	643	2069	
3046	0	774	709	645	2070	
3047	0	773	709	644	2076	
3048	0	774	709	644	2075	
3049	0	776	708	644	2073	
3050	0	775	708	644	2066	
3051	0	775	707	645	2065	
3052	0	774	708	645	2062	
3053	0	773	708	645	2060	
3054	0	773	708	645	2059	
3055	0	773	708	644	2059	
3056	0	773	709	645	2062	
3057	0	772	708	645	2063	
3058	0	772	708	645	2063	
3059	0	773	708	645	2060	
3060	0	774	707	644	2062	
3061	0	773	706	645	2057	
3062	0	772	707	645	2057	
3063	0	773	707	646	2059	
3064	0	774	707	645	2067	
3065	0	774	707	644	2073	
3066	0	774	707	645	2077	
3067	0	773	706	645	2075	
3068	0	772	707	645	2077	
3069	0	773	707	646	2076	
3070	0	773	706	645	2072	
3071	0	773	706	645	2072	
3072	0	773	706	646	2073	
3073	0	773	706	645	2069	
3074	0	773	705	646	2070	
3075	0	774	706	646	2073	
3076	0	774	705	645	2071	
3077	0	774	706	646	2072	
3078	0	772	705	645	2070	
3079	0	773	706	645	2071	
3080	0	772	706	645	2073	
3081	0	771	705	645	2077	
3082	0	772	706	645	2076	
3083	0	771	705	648	2074	
3084	0	773	704	644	2065	
3085	0	774	705	644	2066	
3086	0	773	704	645	2067	
3087	0	773	704	644	2065	
3088	0	773	704	644	2066	
3089	0	774	704	644	2067	
3090	0	774	705	643	2064	
3091	0	773	705	643	2067	
3092	0	773	705	643	2065	
3093	0	773	705	643	2063	
3094	0	773	703	643	2063	
3095	0	773	704	642	2063	
3096	0	772	704	643	2063	
3097	0	772	704	643	2060	
3098	0	772	704	643	2061	
3099	0	773	704	643	2061	
3100	0	773	704	642	2066	
3101	0	772	703	644	2065	
3102	0	772	704	643	2066	
3103	0	772	704	643	2065	
3104	0	774	704	643	2063	
3105	0	774	704	642	2067	
3106	0	773	704	644	2074	
3107	0	772	704	643	2070	
3108	0	772	705	644	2064	
3109	0	773	705	642	2061	
3110	0	773	704	643	2062	
3111	0	772	704	643	2064	
3112	0	773	705	644	2064	
3113	0	772	704	643	2061	
3114	0	774	704	644	2061	
3115	0	774	705	644	2061	
3116	0	773	703	643	2058	
3117	0	774	705	643	2058	
3118	0	773	704	643	2052	
3119	0	773	704	642	2050	
3120	0	774	705	644	2052	
3121	0	772	703	642	2047	
3122	0	774	705	643	2045	
3123	0	773	704	642	2039	
3124	0	773	704	642	2034	
3125	0	773	705	642	2023	
3126	0	774	704	642	2017	
3127	0	772	704	642	2009	
3128	0	773	704	640	2002	
3129	0	773	704	639	2000	
3130	0	774	705	641	1995	
3131	0	774	704	641	2000	
3132	0	774	705	641	2005	
3133	0	774	704	640	2002	
3134	0	774	704	642	1987	
3135	0	775	704	641	1963	
3136	0	773	703	641	1940	
3137	0	774	704	640	1926	
3138	0	774	704	641	1925	
3139	0	774	705	641	1931	
3140	0	775	706	641	1938	
3141	0	774	705	641	1942	
3142	0	775	705	640	1941	
3143	0	775	704	640	1944	
3144	0	775	704	640	1950	
3145	0	777	704	640	1958	
3146	0	775	703	641	1975	
3147	0	775	704	641	1995	
3148	0	775	705	641	2020	
3149	0	774	705	641	2040	
3150	0	775	705	640	2060	
3151	0	775	704	641	2073	
3152	0	774	704	641	2079	
3153	0	775	705	641	2076	
3154	0	776	705	641	2076	
3155	0	776	705	641	2071	
3156	0	777	706	641	2071	
3157	0	776	705	641	2065	
3158	0	776	705	640	2064	
3159	0	777	705	639	2058	
3160	0	776	705	640	2052	
3161	0	775	705	640	2046	
3162	0	777	706	641	2043	
3163	0	776	705	640	2041	
3164	0	776	705	640	2040	
3165	0	778	706	640	2041	
3166	0	776	704	640	2035	
3167	0	777	706	640	2035	
3168	0	777	705	640	2033	
3169	0	777	706	639	2032	
3170	0	778	706	640	2031	
3171	0	776	705	639	2029	
3172	0	776	705	639	2027	
3173	0	775	706	640	2031	
3174	0	776	706	641	2027	
3175	0	776	706	639	2028	
3176	0	777	706	640	2032	
3177	0	776	704	639	2031	
3178	0	777	705	641	2031	
3179	0	777	705	638	2033	
3180	0	777	704	639	2035	
3181	0	777	704	639	2037	
3182	0	778	704	639	2039	
3183	0	778	703	638	2047	
3184	0	778	704	639	2052	
3185	0	779	703	638	2058	
3186	0	778	704	639	2059	
3187	0	778	703	639	2059	
3188	0	778	703	639	2061	
3189	0	778	703	639	2065	
3190	0	779	702	639	2066	
3191	0	778	702	639	2070	
3192	0	779	703	639	2071	
3193	0	779	703	639	2074	
3194	0	779	703	639	2075	
3195	0	780	702	639	2078	
3196	0	779	702	640	2081	
3197	0	780	702	639	2082	
3198	0	780	703	639	2086	
3199	0	780	703	638	2090	
3200	0	780	701	641	2099	
3201	0	780	702	640	2104	
3202	0	780	702	641	2105	
3203	0	780	701	641	2104	
3204	0	780	701	642	2105	
3205	0	781	699	641	2106	
3206	0	780	700	642	2108	
3207	0	782	701	642	2113	
3208	0	781	700	642	2109	
3209	0	781	700	641	2108	
3210	0	782	701	641	2106	
3211	0	782	701	642	2108	
3212	0	781	700	642	2105	
3213	0	781	701	643	2107	
3214	0	782	700	643	2104	
3215	0	781	701	642	2103	
3216	0	782	700	643	2103	
3217	0	781	700	643	2099	
3218	0	782	700	643	2100	
3219	0	782	700	644	2094	
3220	0	781	698	643	2096	
3221	0	781	699	643	2094	
3222	0	782	700	643	2093	
3223	0	781	699	643	2090	
3224	0	782	700	643	2095	
3225	0	781	700	644	2098	
3226	0	780	699	644	2096	
3227	0	781	700	645	2094	
3228	0	780	698	644	2091	
3229	0	780	699	644	2091	
3230	0	780	699	645	2091	
3231	0	779	698	644	2087	
3232	0	779	699	644	2084	
3233	0	779	699	645	2084	
3234	0	780	699	645	2080	
3235	0	779	699	645	2074	
3236	0	779	698	645	2066	
3237	0	780	699	646	2062	
3238	0	779	699	645	2051	
3239	0	779	699	645	2045	
3240	0	779	701	645	2038	
3241	0	778	698	645	2034	
3242	0	778	699	644	2023	
3243	0	778	699	647	2005	
3244	0	778	699	645	1981	
3245	0	779	697	645	1955	
3246	0	778	699	645	1921	
3247	0	779	699	645	1882	
3248	0	778	699	645	1843	
3249	0	778	699	646	1799	
3250	0	778	697	645	1751	
3251	0	778	698	645	1714	
3252	0	778	699	644	1681	
3253	0	778	699	644	1656	
3254	0	779	699	645	1641	
3255	0	779	700	645	1639	
3256	0	779	699	644	1655	
3257	0	780	699	644	1681	
3258	0	778	699	644	1714	
3259	0	779	699	645	1746	
3260	0	780	697	644	1777	
3261	0	780	700	644	1788	
3262	0	780	700	644	1784	
3263	0	780	700	643	1779	
3264	0	780	700	643	1776	
3265	0	780	700	643	1787	
3266	0	779	699	644	1806	
3267	0	780	700	644	1831	
3268	0	780	700	643	1864	
3269	0	780	700	643	1910	
3270	0	781	701	644	1968	
3271	0	780	699	644	2038	
3272	0	781	701	644	2116	
3273	0	783	702	644	2210	
3274	0	784	702	645	2308	
3275	0	783	702	644	2416	
3276	0	784	702	644	2526	
3277	0	784	701	644	2610	
3278	0	784	703	644	2677	
3279	0	785	702	645	2710	
3280	0	784	701	643	2723	
3281	0	785	701	643	2716	
3282	0	783	700	642	2693	
3283	0	784	702	642	2663	
3284	0	784	700	641	2623	
3285	0	784	700	641	2577	
3286	0	783	700	641	2535	
3287	0	784	699	641	2489	
3288	0	784	699	641	2445	
3289	0	784	700	640	2406	
3290	0	784	700	640	2362	
3291	0	784	698	640	2326	
3292	0	784	699	641	2293	
3293	0	784	699	640	2264	
3294	0	784	698	640	2232	
3295	0	785	699	640	2205	
3296	0	784	699	640	2176	
3297	0	785	699	640	2147	
3298	0	784	699	639	2121	
3299	0	785	699	640	2097	
3300	0	785	699	639	2079	
3301	0	784	698	639	2063	
3302	0	784	699	639	2052	
3303	0	785	698	639	2043	
3304	0	785	698	639	2033	
3305	0	786	699	639	2027	
3306	0	786	699	639	2022	
3307	0	787	698	639	2019	
3308	0	787	698	639	2018	
3309	0	787	698	638	2022	
3310	0	789	699	640	2019	
3311	0	787	699	639	2015	
3312	0	787	698	638	2015	
3313	0	787	699	639	2016	
3314	0	786	699	639	2015	
3315	0	785	699	639	2013	
3316	0	786	699	640	2010	
3317	0	784	698	639	2005	
3318	0	783	699	640	2009	
3319	0	783	699	639	2009	
3320	0	783	699	639	2011	
3321	0	783	699	640	2012	
3322	0	783	698	639	2007	
3323	0	782	698	639	2010	
3324	0	783	700	639	2006	
3325	0	783	700	640	2006	
3326	0	784	699	640	2011	
3327	0	784	698	639	2012	
3328	0	784	699	639	2014	
3329	0	785	699	639	2012	
3330	0	786	699	640	2013	
3331	0	786	698	640	2011	
3332	0	786	697	640	2011	
3333	0	786	697	640	2011	
3334	0	788	700	641	2007	
3335	0	787	699	640	2006	
3336	0	788	698	641	2008	
3337	0	789	698	640	2007	
3338	0	789	698	640	2006	
3339	0	791	698	640	2005	
3340	0	790	699	640	2003	
3341	0	790	699	641	2007	
3342	0	791	698	641	2006	
3343	0	791	699	641	2007	
3344	0	791	699	641	2006	
3345	0	791	699	641	2006	
3346	0	789	698	641	2003	
3347	0	790	698	641	2001	
3348	0	790	698	642	2000	
3349	0	790	698	642	1997	
3350	0	790	698	641	1993	
3351	0	790	698	642	1994	
3352	0	789	697	642	1997	
3353	0	789	698	642	2000	
3354	0	789	699	642	2002	
3355	0	790	698	642	2002	
3356	0	790	698	642	2003	
3357	0	790	697	643	2002	
3358	0	790	697	643	2000	
3359	0	790	698	643	1997	
3360	0	790	698	643	2002	
3361	0	790	697	644	2005	
3362	0	790	697	643	2003	
3363	0	789	697	643	1999	
3364	0	789	697	643	1998	
3365	0	790	697	643	1999	
3366	0	791	697	644	1999	
3367	0	790	696	644	1998	
3368	0	790	696	644	1999	
3369	0	791	696	644	1999	
3370	0	792	697	645	1997	
3371	0	791	695	645	1995	
3372	0	792	696	646	1997	
3373	0	792	695	645	1995	
3374	0	792	696	646	1992	
3375	0	794	696	645	1990	
3376	0	794	696	646	1990	
3377	0	794	696	646	1986	
3378	0	793	696	646	1985	
3379	0	791	696	647	1987	
3380	0	793	695	648	1996	
3381	0	792	696	649	1998	
3382	0	793	695	648	1999	
3383	0	793	695	648	1999	
3384	0	793	696	649	2000	
3385	0	794	697	649	1999	
3386	0	794	696	649	2002	
3387	0	795	696	649	1999	
3388	0	794	695	649	2001	
3389	0	794	696	649	2002	
3390	0	795	695	649	2002	
3391	0	794	696	650	2002	
3392	0	793	695	649	2000	
3393	0	794	695	649	2000	
3394	0	793	696	650	1998	
3395	0	794	696	650	1992	
3396	0	793	695	651	1991	
3397	0	793	695	650	1991	
3398	0	793	694	650	1989	
3399	0	793	695	650	1989	
3400	0	793	695	649	1993	
3401	0	794	695	651	2000	
3402	0	793	694	651	1999	
3403	0	794	694	650	1999	
3404	0	794	694	650	1998	
3405	0	795	695	650	2000	
3406	0	794	695	651	2000	
3407	0	795	695	651	2005	
3408	0	795	693	650	1997	
3409	0	796	692	651	1996	
3410	0	796	694	651	1997	
3411	0	794	693	651	1993	
3412	0	794	694	651	1996	
3413	0	795	693	651	1994	
3414	0	794	693	651	1995	
3415	0	795	694	652	1993	
3416	0	795	693	651	1991	
3417	0	795	694	652	1989	
3418	0	793	693	651	1983	
3419	0	794	693	652	1981	
3420	0	795	694	653	1984	
3421	0	794	693	652	1985	
3422	0	794	694	652	1988	
3423	0	796	693	652	1988	
3424	0	793	693	652	1989	
3425	0	795	694	653	1994	
3426	0	795	693	653	1994	
3427	0	796	694	654	1997	
3428	0	796	693	653	1999	
3429	0	796	693	653	2000	
3430	0	798	694	654	1997	
3431	0	796	693	653	1996	
3432	0	798	693	654	1993	
3433	0	797	692	654	1992	
3434	0	798	692	654	1991	
3435	0	797	695	654	1989	
3436	0	797	692	655	1989	
3437	0	800	693	654	1983	
3438	0	797	692	655	1981	
3439	0	796	694	654	1978	
3440	0	796	695	654	1981	
3441	0	795	693	655	1980	
3442	0	795	693	654	1980	
3443	0	795	694	655	1984	
3444	0	795	694	655	1987	
3445	0	796	695	655	1990	
3446	0	795	693	655	1989	
3447	0	795	693	655	1984	
3448	0	794	693	655	1982	
3449	0	794	694	656	1984	
3450	0	794	695	656	1986	
3451	0	793	693	657	1993	
3452	0	794	693	657	1997	
3453	0	794	693	657	2002	
3454	0	794	693	657	2007	
3455	0	794	693	657	2007	
3456	0	793	692	657	2007	
3457	0	794	691	656	1999	
3458	0	794	690	657	1989	
3459	0	793	691	657	1979	
3460	0	793	691	657	1975	
3461	0	792	690	657	1976	
3462	0	792	690	656	1977	
3463	0	793	689	656	1975	
3464	0	793	690	655	1964	
3465	0	792	690	653	1949	
3466	0	791	690	652	1941	
3467	0	791	689	651	1942	
3468	0	789	688	649	1947	
3469	0	788	688	648	1958	
3470	0	788	689	647	1958	
3471	0	786	687	645	1956	
3472	0	785	687	643	1954	
3473	0	785	686	642	1957	
3474	0	784	687	639	1957	
3475	0	781	687	636	1966	
3476	0	781	686	634	1975	
3477	0	777	685	631	1979	
3478	0	777	683	629	1987	
3479	0	774	684	626	1990	
3480	0	771	683	621	1999	
3481	0	769	683	619	2008	
3482	0	765	682	615	2003	
3483	0	763	682	613	2002	
3484	0	761	682	611	2004	
3485	0	761	683	608	2007	
3486	0	759	683	607	2013	
3487	0	758	683	605	2012	
3488	0	759	682	605	2012	
3489	0	760	685	606	2010	
3490	0	759	685	602	2012	
3491	0	760	687	602	2012	
3492	0	760	687	601	2004	
3493	0	762	688	601	1995	
3494	0	764	689	601	1985	
3495	0	766	691	603	1976	
3496	0	767	691	603	1970	
3497	0	768	693	604	1963	
3498	0	771	694	605	1958	
3499	0	773	696	606	1958	
3500	0	775	697	606	1965	
3501	0	777	698	608	1972	
3502	0	780	699	608	1979	
3503	0	781	700	609	1988	
3504	0	782	701	610	1992	
3505	0	784	703	611	1999	
3506	0	785	702	612	2004	
3507	0	785	703	613	2010	
3508	0	787	704	614	2014	
3509	0	787	705	614	2019	
3510	0	788	706	615	2021	
3511	0	788	707	615	2023	
3512	0	788	706	617	2022	
3513	0	788	707	618	2022	
3514	0	788	707	620	2020	
3515	0	788	709	621	2019	
3516	0	788	709	622	2019	
3517	0	787	708	623	2016	
3518	0	788	708	624	2014	
3519	0	787	709	625	2016	
3520	0	788	710	626	2026	
3521	0	786	710	627	2026	
3522	0	787	710	628	2028	
3523	0	786	710	629	2034	
3524	0	787	711	628	2037	
3525	0	787	711	628	2039	
3526	0	786	711	629	2034	
3527	0	786	712	629	2031	
3528	0	785	712	629	2035	
3529	0	786	713	629	2038	
3530	0	785	713	628	2042	
3531	0	786	712	629	2049	
3532	0	785	713	630	2052	
3533	0	786	712	631	2051	
3534	0	785	713	631	2046	
3535	0	784	713	630	2038	
3536	0	784	713	630	2031	
3537	0	785	713	630	2025	
3538	0	784	713	632	2024	
3539	0	785	715	631	2023	
3540	0	786	714	631	2026	
3541	0	786	713	631	2027	
3542	0	787	714	631	2029	
3543	0	788	714	631	2030	
3544	0	788	714	631	2037	
3545	0	789	714	631	2044	
3546	0	787	714	631	2047	
3547	0	788	714	631	2054	
3548	0	788	714	632	2063	
3549	0	789	715	631	2065	
3550	0	789	714	631	2063	
3551	0	789	714	632	2063	
3552	0	788	713	632	2058	
3553	0	788	712	632	2057	
3554	0	789	714	632	2053	
3555	0	789	714	631	2055	
3556	0	789	715	633	2062	
3557	0	788	714	632	2065	
3558	0	787	714	634	2072	
3559	0	787	715	635	2077	
3560	0	787	716	634	2083	
3561	0	787	715	634	2089	
3562	0	787	716	635	2099	
3563	0	787	716	636	2106	
3564	0	787	717	636	2114	
3565	0	787	718	637	2118	
3566	0	788	717	638	2125	
3567	0	788	717	638	2128	
3568	0	789	718	639	2134	
3569	0	788	718	639	2140	
3570	0	789	718	640	2144	
3571	0	789	718	641	2147	
3572	0	789	718	641	2150	
3573	0	789	719	641	2150	
3574	0	788	719	642	2150	
3575	0	788	721	642	2147	
3576	0	787	719	643	2144	
3577	0	787	720	643	2142	
3578	0	785	720	643	2140	
3579	0	785	720	644	2143	
3580	0	785	721	644	2150	
3581	0	784	720	645	2162	
3582	0	783	721	644	2170	
3583	0	783	721	645	2179	
3584	0	782	721	645	2185	
3585	0	782	721	645	2197	
3586	0	782	722	645	2211	
3587	0	781	721	644	2217	
3588	0	780	721	645	2225	
3589	0	781	721	644	2224	
3590	0	780	721	642	2209	
3591	0	780	721	644	2198	
3592	0	778	721	642	2180	
3593	0	778	721	642	2171	
3594	0	779	722	642	2163	
3595	0	778	722	641	2165	
3596	0	778	722	641	2171	
3597	0	776	722	640	2175	
3598	0	776	721	641	2185	
3599	0	778	722	639	2189	
3600	0	776	721	639	2197	
3601	0	776	722	639	2201	
3602	0	775	722	638	2201	
3603	0	775	722	639	2206	
3604	0	776	723	638	2207	
3605	0	775	722	637	2212	
3606	0	775	723	637	2219	
3607	0	774	722	636	2221	
3608	0	774	723	636	2220	
3609	0	774	723	636	2217	
3610	0	775	724	636	2211	
3611	0	774	723	636	2201	
3612	0	774	725	636	2195	
3613	0	773	725	635	2185	
3614	0	772	725	635	2178	
3615	0	773	726	636	2177	
3616	0	773	725	635	2174	
3617	0	774	726	635	2171	
3618	0	772	726	635	2168	
3619	0	772	726	636	2161	
3620	0	772	727	636	2160	
3621	0	772	727	637	2162	
3622	0	772	728	637	2163	
3623	0	772	728	637	2161	
3624	0	771	729	637	2159	
3625	0	771	729	638	2161	
3626	0	771	729	638	2166	
3627	0	770	730	639	2170	
3628	0	770	730	639	2176	
3629	0	769	730	639	2182	
3630	0	770	731	640	2179	
3631	0	769	731	641	2180	
3632	0	768	732	641	2176	
3633	0	768	732	641	2174	
3634	0	767	732	642	2176	
3635	0	768	734	642	2172	
3636	0	768	733	643	2171	
3637	0	769	734	643	2166	
3638	0	769	734	642	2162	
3639	0	770	735	642	2159	
3640	0	770	735	642	2158	
3641	0	770	736	642	2155	
3642	0	770	736	642	2153	
3643	0	770	736	644	2152	
3644	0	769	737	646	2148	
3645	0	768	736	643	2143	
3646	0	766	734	643	2144	
3647	0	766	736	643	2147	
3648	0	766	735	642	2145	
3649	0	763	737	642	2148	
3650	0	761	737	642	2145	
3651	0	759	735	641	2141	
3652	0	759	737	640	2140	
3653	0	758	736	639	2133	
3654	0	757	736	639	2129	
3655	0	757	737	639	2127	
3656	0	756	736	637	2125	
3657	0	756	738	637	2128	
3658	0	754	737	636	2127	
3659	0	754	737	635	2128	
3660	0	753	737	634	2131	
3661	0	753	737	633	2131	
3662	0	752	735	632	2122	
3663	0	751	735	632	2122	
3664	0	751	735	630	2118	
3665	0	751	735	629	2115	
3666	0	750	735	628	2119	
3667	0	750	734	629	2120	
3668	0	750	734	628	2121	
3669	0	750	733	629	2116	
3670	0	750	733	628	2115	
3671	0	749	732	627	2118	
3672	0	748	732	627	2119	
3673	0	749	732	626	2119	
3674	0	749	733	625	2119	
3675	0	750	732	624	2118	
3676	0	750	731	623	2118	
3677	0	750	732	623	2116	
3678	0	750	732	622	2113	
3679	0	750	732	622	2111	
3680	0	750	732	621	2109	
3681	0	749	731	620	2108	
3682	0	749	731	620	2106	
3683	0	749	731	620	2109	
3684	0	750	730	620	2109	
3685	0	751	730	619	2108	
3686	0	751	728	619	2106	
3687	0	752	729	619	2104	
3688	0	753	729	619	2101	
3689	0	753	729	619	2104	
3690	0	754	729	619	2103	
3691	0	754	727	619	2104	
3692	0	754	729	619	2104	
3693	0	754	729	620	2108	
3694	0	756	729	621	2108	
3695	0	755	728	619	2108	
3696	0	756	729	619	2109	
3697	0	756	728	619	2106	
3698	0	757	728	621	2109	
3699	0	759	729	621	2107	
3700	0	758	729	621	2112	
3701	0	758	729	621	2113	
3702	0	758	728	621	2111	
3703	0	760	728	622	2109	
3704	0	760	728	620	2106	
3705	0	762	728	620	2103	
3706	0	762	727	619	2104	
3707	0	762	728	621	2104	
3708	0	764	727	621	2102	
3709	0	765	728	621	2102	
3710	0	766	727	620	2101	
3711	0	766	726	618	2104	
3712	0	766	726	619	2109	
3713	0	766	727	619	2110	
3714	0	766	727	620	2106	
3715	0	767	728	619	2104	
3716	0	767	727	618	2105	
3717	0	768	727	619	2107	
3718	0	769	727	619	2107	
3719	0	770	727	618	2110	
3720	0	771	727	618	2116	
3721	0	770	726	618	2114	
3722	0	771	727	619	2107	
3723	0	771	727	619	2094	
3724	0	773	727	618	2079	
3725	0	774	727	619	2059	
3726	0	774	725	618	2050	
3727	0	774	726	619	2040	
3728	0	775	726	618	2042	
3729	0	775	726	618	2048	
3730	0	776	726	619	2052	
3731	0	775	725	618	2051	
3732	0	777	725	619	2053	
3733	0	777	726	620	2059	
3734	0	779	726	622	2067	
3735	0	780	726	620	2075	
3736	0	780	726	620	2090	
3737	0	779	726	619	2097	
3738	0	780	726	620	2103	
3739	0	781	726	620	2106	
3740	0	780	725	622	2107	
3741	0	781	726	622	2112	
3742	0	781	726	621	2112	
3743	0	781	726	622	2115	
3744	0	782	727	625	2108	
3745	0	782	726	623	2106	
3746	0	782	725	622	2106	
3747	0	783	724	624	2104	
3748	0	783	726	624	2107	
3749	0	783	727	624	2106	
3750	0	784	727	625	2100	
3751	0	783	726	625	2103	
3752	0	783	726	625	2103	
3753	0	783	727	625	2103	
3754	0	782	727	625	2099	
3755	0	783	728	625	2098	
3756	0	783	727	626	2098	
3757	0	781	727	626	2098	
3758	0	780	728	628	2097	
3759	0	781	728	628	2098	
3760	0	781	727	628	2103	
3761	0	780	727	628	2103	
3762	0	780	727	629	2102	
3763	0	780	727	629	2101	
3764	0	780	727	629	2100	
3765	0	780	728	629	2103	
3766	0	780	727	630	2102	
3767	0	780	728	631	2101	
3768	0	779	728	631	2100	
3769	0	779	728	632	2106	
3770	0	779	729	631	2110	
3771	0	778	728	631	2113	
3772	0	779	729	633	2112	
3773	0	778	729	632	2110	
3774	0	777	729	633	2109	
3775	0	778	729	635	2111	
3776	0	777	730	634	2113	
3777	0	776	729	633	2111	
3778	0	776	729	635	2115	
3779	0	777	730	635	2112	
3780	0	777	729	635	2114	
3781	0	778	730	635	2115	
3782	0	776	729	635	2116	
3783	0	777	730	637	2121	
3784	0	776	730	637	2124	
3785	0	776	730	637	2118	
3786	0	776	731	637	2122	
3787	0	774	731	637	2124	
3788	0	774	731	638	2129	
3789	0	774	730	638	2129	
3790	0	774	730	638	2126	
3791	0	775	729	638	2125	
3792	0	776	730	639	2118	
3793	0	776	730	638	2108	
3794	0	775	730	638	2110	
3795	0	776	730	639	2112	
3796	0	776	730	637	2112	
3797	0	776	730	638	2111	
3798	0	775	731	639	2110	
3799	0	776	730	639	2109	
3800	0	776	731	638	2110	
3801	0	774	730	639	2108	
3802	0	775	730	639	2102	
3803	0	775	730	639	2104	
3804	0	775	730	640	2106	
3805	0	776	730	639	2109	
3806	0	776	730	640	2114	
3807	0	776	731	640	2112	
3808	0	776	731	641	2111	
3809	0	776	731	640	2107	
3810	0	778	732	641	2109	
3811	0	777	731	641	2111	
3812	0	778	732	642	2108	
3813	0	778	731	642	2102	
3814	0	778	731	642	2097	
3815	0	779	732	641	2098	
3816	0	779	732	641	2100	
3817	0	779	733	642	2098	
3818	0	779	733	642	2098	
3819	0	779	733	642	2099	
3820	0	780	734	643	2101	
3821	0	780	734	643	2103	
3822	0	780	733	642	2105	
3823	0	780	733	642	2112	
3824	0	780	733	642	2114	
3825	0	780	734	643	2114	
3826	0	780	735	642	2114	
3827	0	779	734	641	2111	
3828	0	780	735	643	2111	
3829	0	780	735	645	2107	
3830	0	781	735	643	2103	
3831	0	782	736	643	2104	
3832	0	781	734	642	2101	
3833	0	781	735	643	2104	
3834	0	782	736	644	2099	
3835	0	782	735	642	2098	
3836	0	783	736	642	2095	
3837	0	780	735	642	2090	
3838	0	781	736	643	2087	
3839	0	782	736	645	2077	
3840	0	782	736	643	2080	
3841	0	781	735	641	2085	
3842	0	782	737	643	2086	
3843	0	781	735	641	2088	
3844	0	781	735	642	2091	
3845	0	781	735	640	2089	
3846	0	780	734	642	2088	
3847	0	781	735	641	2092	
3848	0	781	735	642	2091	
3849	0	780	735	642	2089	
3850	0	780	735	643	2087	
3851	0	779	734	642	2088	
3852	0	779	734	643	2088	
3853	0	780	734	643	2091	
3854	0	779	734	643	2093	
3855	0	779	734	642	2093	
3856	0	778	733	642	2095	
3857	0	778	733	642	2096	
3858	0	778	733	643	2095	
3859	0	777	734	642	2095	
3860	0	776	734	640	2101	
3861	0	776	733	642	2100	
3862	0	776	733	642	2098	
3863	0	775	733	641	2095	
3864	0	776	733	641	2095	
3865	0	776	732	640	2093	
3866	0	774	731	640	2094	
3867	0	775	731	640	2091	
3868	0	775	731	640	2091	
3869	0	774	730	640	2092	
3870	0	774	731	641	2096	
3871	0	773	730	640	2091	
3872	0	773	730	640	2084	
3873	0	772	730	640	2082	
3874	0	774	730	640	2081	
3875	0	772	730	639	2079	
3876	0	773	730	639	2079	
3877	0	772	729	638	2080	
3878	0	772	729	639	2087	
3879	0	772	730	640	2086	
3880	0	772	729	640	2087	
3881	0	772	728	638	2087	
3882	0	773	730	639	2087	
3883	0	772	731	638	2085	
3884	0	771	729	638	2085	
3885	0	772	729	638	2087	
3886	0	771	728	637	2086	
3887	0	772	731	637	2085	
3888	0	771	728	637	2086	
3889	0	772	729	637	2085	
3890	0	772	728	637	2087	
3891	0	772	728	637	2091	
3892	0	772	730	637	2090	
3893	0	772	728	636	2091	
3894	0	772	727	637	2086	
3895	0	772	727	638	2084	
3896	0	772	726	636	2085	
3897	0	772	727	636	2085	
3898	0	771	726	636	2088	
3899	0	770	726	637	2089	
3900	0	771	726	637	2094	
3901	0	772	726	636	2100	
3902	0	773	726	636	2102	
3903	0	773	726	636	2104	
3904	0	773	725	637	2105	
3905	0	774	725	636	2107	
3906	0	773	726	636	2106	
3907	0	774	726	636	2107	
3908	0	773	726	636	2102	
3909	0	773	724	636	2090	
3910	0	774	725	636	2079	
3911	0	774	726	636	2073	
3912	0	775	725	636	2064	
3913	0	776	726	636	2057	
3914	0	776	725	637	2054	
3915	0	777	726	636	2054	
3916	0	777	725	636	2056	
3917	0	778	725	636	2056	
3918	0	778	726	634	2059	
3919	0	779	726	636	2062	
3920	0	779	725	636	2059	
3921	0	779	726	636	2065	
3922	0	780	727	637	2073	
3923	0	779	727	637	2073	
3924	0	779	727	636	2077	
3925	0	780	727	637	2082	
3926	0	780	727	636	2081	
3927	0	782	727	637	2081	
3928	0	782	727	636	2078	
3929	0	782	727	637	2078	
3930	0	783	726	637	2079	
3931	0	783	726	636	2073	
3932	0	784	729	637	2067	
3933	0	783	727	636	2067	
3934	0	783	727	638	2069	
3935	0	782	727	637	2071	
3936	0	783	726	637	2077	
3937	0	783	729	637	2077	
3938	0	783	726	636	2073	
3939	0	783	726	637	2060	
3940	0	782	726	637	2055	
3941	0	782	726	637	2057	
3942	0	782	726	637	2055	
3943	0	782	726	636	2060	
3944	0	782	726	637	2065	
3945	0	782	727	638	2066	
3946	0	782	726	637	2064	
3947	0	782	727	637	2061	
3948	0	782	726	637	2064	
3949	0	783	726	638	2063	
3950	0	783	727	637	2060	
3951	0	782	726	637	2059	
3952	0	783	726	637	2057	
3953	0	782	726	636	2056	
3954	0	782	725	637	2056	
3955	0	783	726	638	2053	
3956	0	782	726	637	2052	
3957	0	782	726	636	2050	
3958	0	782	725	637	2051	
3959	0	781	725	638	2052	
3960	0	781	726	638	2051	
3961	0	781	726	637	2051	
3962	0	782	726	637	2050	
3963	0	782	725	637	2050	
3964	0	782	725	638	2048	
3965	0	782	726	638	2049	
3966	0	782	726	638	2052	
3967	0	781	725	638	2048	
3968	0	780	725	638	2050	
3969	0	781	725	638	2051	
3970	0	780	725	639	2057	
3971	0	780	725	639	2056	
3972	0	781	725	640	2055	
3973	0	781	726	639	2048	
3974	0	780	724	639	2049	
3975	0	781	725	639	2052	
3976	0	779	724	639	2050	
3977	0	778	725	639	2051	
3978	0	782	724	638	2048	
3979	0	779	724	638	2045	
3980	0	778	725	639	2044	
3981	0	777	724	638	2042	
3982	0	778	724	638	2041	
3983	0	777	724	638	2040	
3984	0	776	723	638	2040	
3985	0	776	723	638	2042	
3986	0	776	722	638	2041	
3987	0	777	723	638	2045	
3988	0	774	723	638	2044	
3989	0	777	723	639	2049	
3990	0	777	724	639	2056	
3991	0	775	722	639	2057	
3992	0	776	725	638	2056	
3993	0	776	722	637	2054	
3994	0	775	722	638	2047	
3995	0	776	723	638	2046	
3996	0	775	722	637	2045	
3997	0	776	722	637	2040	
3998	0	777	721	637	2038	
3999	0	776	721	638	2040	
4000	0	776	721	639	2033	
4001	0	776	722	638	2027	
4002	0	776	721	638	2020	
4003	0	776	721	638	2014	
4004	0	776	721	638	2008	
4005	0	777	722	639	2005	
4006	0	776	722	639	1996	
4007	0	776	722	638	1982	
4008	0	776	722	637	1966	
4009	0	776	721	637	1958	
4010	0	775	722	638	1955	
4011	0	776	721	637	1956	
4012	0	776	721	637	1965	
4013	0	778	721	636	1974	
4014	0	777	721	637	1982	
4015	0	779	722	638	1974	
4016	0	778	721	636	1962	
4017	0	779	722	636	1951	
4018	0	778	721	636	1943	
4019	0	778	721	636	1945	
4020	0	778	722	636	1953	
4021	0	779	723	637	1964	
4022	0	778	721	636	1969	
4023	0	778	722	636	1973	
4024	0	778	722	637	1984	
4025	0	779	723	636	2002	
4026	0	779	722	636	2010	
4027	0	780	722	636	2017	
4028	0	779	722	635	2020	
4029	0	781	722	636	2020	
4030	0	781	722	637	2021	
4031	0	780	722	635	2016	
4032	0	780	721	635	2014	
4033	0	781	721	634	2021	
4034	0	782	721	637	2027	
4035	0	780	721	637	2028	
4036	0	782	721	637	2024	
4037	0	781	720	637	2018	
4038	0	781	720	636	2016	
4039	0	782	721	637	2013	
4040	0	781	720	637	2011	
4041	0	782	721	637	2008	
4042	0	780	720	636	2005	
4043	0	780	720	634	2010	
4044	0	781	720	636	2007	
4045	0	780	720	636	2006	
4046	0	781	720	635	1999	
4047	0	782	721	636	1998	
4048	0	781	720	636	1999	
4049	0	780	720	636	1997	
4050	0	781	721	635	1996	
4051	0	782	721	636	2002	
4052	0	781	721	635	1998	
4053	0	781	721	635	1998	
4054	0	781	721	636	2001	
4055	0	780	721	636	2003	
4056	0	780	721	635	2006	
4057	0	781	720	635	2007	
4058	0	781	721	636	2009	
4059	0	781	721	636	2013	
4060	0	780	721	637	2016	
4061	0	782	721	636	2021	
4062	0	782	721	635	2026	
4063	0	782	722	635	2030	
4064	0	782	721	636	2035	
4065	0	781	721	637	2037	
4066	0	782	721	636	2039	
4067	0	782	721	635	2038	
4068	0	782	721	636	2043	
4069	0	782	722	636	2047	
4070	0	782	722	637	2054	
4071	0	782	722	636	2056	
4072	0	783	723	636	2061	
4073	0	783	723	635	2063	
4074	0	783	723	637	2065	
4075	0	783	724	637	2063	
4076	0	784	724	637	2066	
4077	0	784	725	636	2064	
4078	0	785	725	634	2069	
4079	0	784	725	636	2079	
4080	0	784	725	637	2090	
4081	0	784	725	636	2104	
4082	0	785	727	637	2112	
4083	0	785	729	637	2111	
4084	0	784	726	637	2106	
4085	0	784	727	637	2106	
4086	0	785	726	637	2107	
4087	0	786	728	638	2106	
4088	0	787	727	638	2095	
4089	0	786	727	637	2079	
4090	0	785	728	638	2058	
4091	0	786	728	638	2024	
4092	0	784	727	637	1991	
4093	0	785	727	637	1981	
4094	0	785	728	639	1990	
4095	0	784	729	638	2006	
4096	0	786	729	639	2023	
4097	0	784	728	638	2034	
4098	0	785	728	637	2047	
4099	0	785	729	639	2060	
4100	0	784	729	639	2070	
4101	0	786	729	639	2084	
4102	0	784	729	639	2087	
4103	0	786	730	637	2093	
4104	0	785	731	639	2092	
4105	0	785	730	639	2086	
4106	0	786	730	639	2086	
4107	0	786	731	638	2086	
4108	0	785	731	639	2081	
4109	0	785	731	639	2077	
4110	0	784	731	639	2077	
4111	0	785	731	638	2077	
4112	0	786	731	638	2072	
4113	0	786	732	638	2071	
4114	0	785	732	639	2068	
4115	0	785	733	639	2062	
4116	0	785	732	639	2055	
4117	0	786	733	639	2046	
4118	0	786	733	640	2041	
4119	0	785	733	640	2032	
4120	0	785	734	640	2016	
4121	0	786	734	640	2001	
4122	0	786	734	640	1975	
4123	0	786	734	640	1958	
4124	0	785	735	641	1939	
4125	0	786	735	641	1917	
4126	0	785	735	640	1892	
4127	0	785	735	640	1867	
4128	0	786	735	640	1837	
4129	0	786	735	641	1807	
4130	0	786	736	641	1785	
4131	0	787	736	640	1767	
4132	0	787	737	641	1756	
4133	0	787	736	641	1748	
4134	0	786	737	641	1747	
4135	0	786	737	641	1765	
4136	0	787	736	640	1787	
4137	0	787	738	641	1803	
4138	0	788	737	641	1814	
4139	0	788	737	640	1824	
4140	0	788	738	640	1835	
4141	0	787	737	638	1840	
4142	0	788	738	639	1852	
4143	0	788	736	639	1863	
4144	0	788	737	638	1890	
4145	0	788	738	638	1922	
4146	0	787	737	637	1962	
4147	0	789	738	638	2016	
4148	0	789	737	637	2070	
4149	0	788	738	636	2134	
4150	0	790	738	637	2209	
4151	0	791	738	637	2291	
4152	0	792	739	637	2380	
4153	0	792	739	636	2470	
4154	0	792	739	636	2544	
4155	0	792	739	637	2595	
4156	0	792	739	635	2627	
4157	0	791	738	635	2638	
4158	0	792	738	634	2639	
4159	0	791	738	633	2626	
4160	0	791	737	635	2599	
4161	0	792	737	632	2572	
4162	0	793	737	633	2539	
4163	0	792	737	633	2504	
4164	0	792	737	633	2476	
4165	0	793	738	633	2445	
4166	0	793	738	631	2418	
4167	0	793	738	632	2383	
4168	0	792	737	632	2347	
4169	0	793	737	633	2319	
4170	0	793	738	633	2295	
4171	0	794	738	632	2271	
4172	0	794	737	631	2243	
4173	0	794	737	631	2214	
4174	0	795	737	631	2190	
4175	0	795	738	632	2165	
4176	0	795	738	630	2140	
4177	0	795	737	632	2117	
4178	0	795	737	631	2099	
4179	0	796	737	631	2082	
4180	0	797	738	631	2060	
4181	0	798	737	630	2042	
4182	0	798	737	630	2028	
4183	0	798	737	630	2022	
4184	0	796	736	630	2015	
4185	0	797	737	631	2010	
4186	0	797	736	629	2010	
4187	0	797	736	629	2011	
4188	0	797	737	629	2015	
4189	0	797	736	629	2019	
4190	0	797	737	629	2022	
4191	0	798	737	628	2019	
4192	0	797	737	629	2015	
4193	0	796	736	629	2017	
4194	0	797	736	629	2019	
4195	0	795	736	629	2018	
4196	0	795	736	628	2016	
4197	0	794	736	628	2014	
4198	0	794	737	629	2013	
4199	0	792	736	629	2013	
4200	0	792	736	629	2010	
4201	0	792	735	628	2012	
4202	0	792	735	628	2011	
4203	0	792	737	628	2012	
4204	0	792	736	628	2011	
4205	0	791	736	629	2008	
4206	0	792	736	627	2007	
4207	0	792	737	628	2006	
4208	0	793	737	628	2007	
4209	0	792	737	627	2008	
4210	0	792	737	628	2006	
4211	0	792	736	626	2004	
4212	0	795	736	627	1999	
4213	0	795	737	628	2000	
4214	0	794	735	628	1999	
4215	0	795	735	628	2000	
4216	0	796	735	627	2004	
4217	0	795	735	628	2004	
4218	0	795	735	628	2006	
4219	0	796	735	628	2007	
4220	0	796	734	628	2005	
4221	0	797	734	628	2006	
4222	0	797	733	628	2003	
4223	0	798	734	628	2000	
4224	0	799	732	629	1994	
4225	0	798	733	629	1989	
4226	0	798	732	628	1983	
4227	0	797	732	629	1984	
4228	0	797	733	629	1987	
4229	0	797	731	629	1987	
4230	0	796	732	629	1987	
4231	0	794	731	628	1983	
4232	0	795	732	629	1984	
4233	0	794	730	629	1982	
4234	0	794	729	629	1980	
4235	0	793	730	629	1981	
4236	0	793	730	628	1979	
4237	0	791	730	628	1980	
4238	0	793	730	628	1980	
4239	0	794	729	628	1982	
4240	0	794	729	628	1983	
4241	0	794	729	627	1983	
4242	0	797	730	627	1988	
4243	0	797	729	627	1989	
4244	0	797	728	627	1992	
4245	0	798	729	627	1996	
4246	0	798	729	627	1994	
4247	0	798	729	627	1990	
4248	0	799	729	627	1988	
4249	0	800	731	627	1986	
4250	0	799	730	628	1983	
4251	0	798	729	626	1979	
4252	0	800	729	626	1979	
4253	0	800	731	624	1978	
4254	0	799	729	625	1978	
4255	0	801	730	626	1980	
4256	0	800	728	626	1978	
4257	0	801	729	629	1981	
4258	0	802	727	629	1977	
4259	0	800	727	630	1977	
4260	0	800	728	628	1974	
4261	0	800	728	627	1974	
4262	0	800	729	628	1975	
4263	0	803	728	627	1974	
4264	0	802	729	627	1974	
4265	0	803	730	627	1974	
4266	0	803	730	626	1971	
4267	0	804	730	627	1967	
4268	0	803	730	626	1962	
4269	0	804	729	625	1965	
4270	0	803	730	625	1968	
4271	0	802	729	624	1967	
4272	0	802	729	624	1965	
4273	0	803	729	623	1966	
4274	0	802	729	624	1965	
4275	0	802	729	623	1962	
4276	0	802	730	623	1962	
4277	0	801	729	622	1959	
4278	0	801	729	622	1964	
4279	0	801	730	623	1964	
4280	0	801	729	622	1963	
4281	0	800	729	621	1963	
4282	0	800	730	621	1964	
4283	0	801	729	622	1960	
4284	0	800	729	621	1960	
4285	0	800	730	622	1962	
4286	0	798	730	620	1960	
4287	0	798	731	621	1963	
4288	0	798	731	621	1962	
4289	0	798	730	621	1959	
4290	0	798	731	622	1962	
4291	0	797	730	621	1966	
4292	0	796	731	621	1961	
4293	0	796	731	621	1958	
4294	0	796	731	621	1955	
4295	0	796	731	621	1956	
4296	0	796	731	621	1958	
4297	0	795	731	621	1960	
4298	0	795	731	621	1962	
4299	0	795	731	621	1961	
4300	0	795	731	622	1963	
4301	0	794	731	621	1963	
4302	0	794	730	622	1963	
4303	0	794	731	622	1968	
4304	0	792	731	622	1971	
4305	0	792	731	622	1970	
4306	0	792	731	621	1963	
4307	0	792	731	622	1962	
4308	0	792	731	622	1962	
4309	0	793	731	622	1963	
4310	0	792	731	622	1961	
4311	0	792	731	621	1960	
4312	0	792	732	621	1962	
4313	0	793	732	620	1957	
4314	0	792	732	620	1956	
4315	0	793	732	620	1958	
4316	0	793	731	619	1954	
4317	0	792	731	620	1953	
4318	0	793	731	619	1951	
4319	0	793	732	621	1946	
4320	0	793	732	619	1945	
4321	0	793	731	618	1941	
4322	0	792	732	619	1942	
4323	0	795	731	618	1938	
4324	0	794	730	618	1936	
4325	0	794	731	618	1936	
4326	0	794	731	617	1933	
4327	0	794	731	618	1934	
4328	0	797	731	617	1932	
4329	0	794	729	617	1934	
4330	0	795	731	617	1937	
4331	0	794	730	615	1934	
4332	0	793	731	615	1936	
4333	0	794	730	613	1935	
4334	0	794	730	615	1935	
4335	0	794	731	614	1937	
4336	0	793	729	613	1933	
4337	0	792	730	613	1932	
4338	0	795	729	611	1929	
4339	0	794	728	611	1933	
4340	0	794	730	612	1932	
4341	0	793	729	610	1929	
4342	0	792	730	611	1930	
4343	0	796	729	610	1924	
4344	0	793	728	609	1922	
4345	0	793	730	609	1922	
4346	0	792	729	608	1919	
4347	0	792	730	609	1920	
4348	0	792	729	608	1918	
4349	0	791	728	609	1914	
4350	0	791	729	607	1916	
4351	0	790	728	606	1916	
4352	0	789	729	606	1918	
4353	0	793	728	605	1912	
4354	0	790	727	605	1911	
4355	0	790	728	605	1912	
4356	0	788	727	603	1911	
4357	0	786	727	603	1911	
4358	0	787	729	602	1904	
4359	0	785	726	601	1907	
4360	0	785	726	601	1910	
4361	0	784	726	602	1910	
4362	0	783	725	601	1905	
4363	0	782	725	601	1905	
4364	0	782	725	601	1905	
4365	0	780	724	600	1906	
4366	0	779	724	599	1907	
4367	0	778	723	599	1905	
4368	0	777	723	599	1910	
4369	0	778	723	599	1912	
4370	0	776	722	599	1910	
4371	0	776	722	600	1911	
4372	0	775	721	600	1909	
4373	0	775	721	600	1909	
4374	0	775	721	600	1907	
4375	0	773	721	601	1907	
4376	0	773	720	602	1910	
4377	0	773	720	603	1909	
4378	0	773	720	605	1915	
4379	0	774	720	606	1918	
4380	0	771	720	607	1918	
4381	0	771	719	607	1918	
4382	0	771	719	608	1917	
4383	0	771	719	609	1916	
4384	0	772	720	610	1916	
4385	0	771	719	612	1910	
4386	0	771	719	613	1906	
4387	0	770	719	613	1911	
4388	0	769	718	615	1917	
4389	0	771	718	615	1920	
4390	0	768	718	617	1927	
4391	0	768	718	618	1934	
4392	0	768	718	619	1940	
4393	0	768	717	621	1938	
4394	0	769	717	621	1934	
4395	0	767	717	623	1935	
4396	0	768	717	622	1941	
4397	0	768	717	624	1946	
4398	0	768	716	624	1948	
4399	0	768	716	625	1948	
4400	0	768	715	625	1947	
4401	0	767	716	625	1949	
4402	0	768	716	626	1952	
4403	0	768	717	627	1951	
4404	0	769	716	626	1950	
4405	0	769	716	627	1953	
4406	0	769	716	627	1953	
4407	0	769	716	627	1951	
4408	0	770	716	628	1951	
4409	0	770	717	629	1956	
4410	0	771	717	629	1965	
4411	0	771	717	630	1964	
4412	0	771	718	630	1959	
4413	0	772	716	630	1960	
4414	0	773	717	631	1964	
4415	0	771	716	631	1964	
4416	0	772	716	630	1966	
4417	0	772	715	630	1968	
4418	0	772	715	630	1969	
4419	0	773	715	631	1974	
4420	0	773	714	631	1974	
4421	0	774	714	633	1976	
4422	0	773	714	632	1974	
4423	0	774	714	633	1976	
4424	0	775	714	633	1979	
4425	0	774	713	633	1981	
4426	0	775	713	634	1986	
4427	0	775	712	634	1988	
4428	0	775	711	636	1993	
4429	0	776	711	638	1997	
4430	0	776	710	638	1999	
4431	0	777	710	639	2004	
4432	0	776	709	640	2004	
4433	0	776	708	642	2008	
4434	0	777	708	644	2015	
4435	0	776	707	645	2017	
4436	0	775	707	646	2017	
4437	0	775	707	648	2026	
4438	0	776	706	648	2030	
4439	0	776	706	650	2037	
4440	0	775	706	653	2045	
4441	0	774	705	654	2049	
4442	0	773	706	657	2056	
4443	0	777	704	658	2057	
4444	0	774	705	661	2062	
4445	0	773	704	663	2068	
4446	0	772	703	665	2070	
4447	0	771	703	668	2073	
4448	0	772	701	669	2073	
4449	0	771	702	672	2076	
4450	0	770	702	674	2080	
4451	0	767	701	676	2079	
4452	0	766	701	679	2082	
4453	0	766	701	680	2082	
4454	0	764	701	684	2083	
4455	0	764	700	685	2086	
4456	0	762	698	687	2089	
4457	0	761	699	689	2096	
4458	0	761	699	690	2099	
4459	0	759	697	692	2101	
4460	0	757	696	693	2100	
4461	0	753	695	692	2098	
4462	0	752	695	694	2099	
4463	0	752	694	696	2096	
4464	0	751	693	693	2099	
4465	0	749	691	694	2105	
4466	0	747	691	695	2110	
4467	0	744	691	696	2117	
4468	0	744	691	698	2121	
4469	0	743	690	697	2124	
4470	0	740	690	698	2131	
4471	0	739	688	697	2131	
4472	0	737	688	698	2130	
4473	0	738	688	701	2130	
4474	0	736	689	699	2134	
4475	0	735	689	699	2142	
4476	0	734	688	698	2140	
4477	0	733	688	698	2140	
4478	0	735	687	697	2138	
4479	0	733	687	696	2139	
4480	0	732	686	697	2139	
4481	0	733	687	696	2142	
4482	0	731	687	693	2144	
4483	0	731	686	694	2150	
4484	0	731	687	694	2155	
4485	0	731	687	692	2155	
4486	0	732	689	692	2155	
4487	0	732	688	690	2154	
4488	0	732	688	690	2156	
4489	0	733	689	689	2160	
4490	0	733	689	688	2161	
4491	0	734	691	687	2162	
4492	0	734	691	690	2165	
4493	0	737	691	686	2164	
4494	0	739	692	685	2162	
4495	0	739	692	685	2159	
4496	0	740	693	684	2153	
4497	0	742	693	683	2151	
4498	0	743	694	683	2153	
4499	0	744	694	682	2154	
4500	0	744	694	681	2148	
4501	0	745	695	680	2143	
4502	0	746	695	680	2140	
4503	0	747	695	679	2136	
4504	0	748	695	677	2133	
4505	0	747	695	678	2131	
4506	0	748	695	677	2130	
4507	0	749	696	676	2126	
4508	0	751	696	675	2124	
4509	0	753	697	673	2125	
4510	0	754	696	672	2129	
4511	0	756	697	671	2132	
4512	0	758	697	669	2137	
4513	0	760	697	668	2135	
4514	0	762	697	666	2132	
4515	0	760	697	666	2126	
4516	0	761	696	664	2121	
4517	0	762	696	662	2114	
4518	0	762	696	660	2105	
4519	0	761	695	659	2098	
4520	0	762	696	658	2089	
4521	0	761	694	656	2077	
4522	0	760	694	655	2071	
4523	0	759	694	654	2065	
4524	0	761	694	652	2061	
4525	0	759	694	652	2065	
4526	0	760	694	650	2073	
4527	0	761	694	650	2078	
4528	0	763	695	649	2077	
4529	0	764	695	648	2067	
4530	0	762	695	648	2056	
4531	0	764	695	646	2046	
4532	0	764	696	646	2042	
4533	0	765	697	645	2039	
4534	0	767	697	644	2032	
4535	0	767	697	643	2022	
4536	0	767	697	642	2013	
4537	0	767	698	643	2004	
4538	0	767	698	643	2001	
4539	0	769	699	642	2000	
4540	0	768	698	642	2001	
4541	0	769	698	641	2005	
4542	0	770	698	641	2012	
4543	0	771	699	641	2019	
4544	0	772	701	640	2030	
4545	0	773	700	641	2039	
4546	0	773	699	640	2036	
4547	0	774	700	641	2035	
4548	0	774	700	641	2036	
4549	0	774	700	641	2036	
4550	0	773	699	642	2037	
4551	0	774	700	641	2032	
4552	0	775	701	642	2027	
4553	0	776	702	643	2021	
4554	0	776	703	642	2018	
4555	0	778	703	643	2020	
4556	0	777	702	643	2020	
4557	0	777	703	644	2020	
4558	0	777	703	645	2025	
4559	0	778	703	645	2027	
4560	0	776	702	646	2031	
4561	0	777	703	646	2034	
4562	0	777	703	646	2036	
4563	0	778	704	646	2039	
4564	0	779	703	646	2039	
4565	0	779	703	647	2039	
4566	0	779	704	647	2040	
4567	0	779	705	647	2040	
4568	0	781	704	646	2040	
4569	0	782	705	646	2039	
4570	0	781	704	646	2039	
4571	0	781	704	645	2037	
4572	0	781	705	645	2029	
4573	0	782	705	644	2022	
4574	0	783	704	644	2014	
4575	0	782	705	644	2014	
4576	0	783	705	643	2018	
4577	0	784	705	643	2024	
4578	0	785	705	643	2029	
4579	0	785	705	642	2033	
4580	0	785	705	642	2035	
4581	0	785	705	641	2035	
4582	0	785	705	640	2035	
4583	0	785	706	640	2032	
4584	0	785	705	640	2035	
4585	0	785	706	639	2038	
4586	0	787	706	638	2034	
4587	0	787	707	638	2032	
4588	0	787	707	637	2034	
4589	0	787	707	636	2039	
4590	0	787	707	637	2043	
4591	0	787	708	637	2042	
4592	0	787	709	636	2045	
4593	0	786	709	636	2047	
4594	0	787	709	636	2050	
4595	0	786	709	636	2052	
4596	0	788	710	636	2052	
4597	0	787	710	636	2051	
4598	0	787	710	637	2048	
4599	0	786	710	637	2048	
4600	0	785	710	637	2047	
4601	0	787	711	637	2045	
4602	0	786	712	637	2044	
4603	0	786	712	637	2045	
4604	0	787	713	637	2050	
4605	0	786	713	638	2057	
4606	0	786	714	638	2058	
4607	0	786	713	639	2055	
4608	0	786	713	639	2054	
4609	0	785	713	638	2054	
4610	0	784	714	639	2054	
4611	0	784	714	639	2052	
4612	0	785	715	639	2053	
4613	0	785	714	640	2050	
4614	0	785	715	638	2053	
4615	0	783	715	639	2056	
4616	0	783	716	639	2058	
4617	0	784	717	640	2062	
4618	0	785	716	639	2064	
4619	0	784	716	639	2066	
4620	0	783	716	640	2063	
4621	0	783	717	639	2061	
4622	0	784	717	640	2060	
4623	0	785	717	639	2060	
4624	0	785	718	640	2061	
4625	0	783	717	639	2063	
4626	0	784	718	639	2064	
4627	0	783	719	641	2067	
4628	0	784	718	641	2064	
4629	0	783	719	641	2063	
4630	0	784	720	642	2066	
4631	0	784	719	641	2064	
4632	0	785	719	641	2057	
4633	0	786	719	642	2052	
