# OpenSignals Text File Format. Version 1
# {"00:07:80:4C:2A:F7": {"position": 0, "device": "bioplux", 
"device name": "00:07:80:4C:2A:F7", "device connection": 
"BTH00:07:80:4C:2A:F7", "sampling rate": 1000, "resolution": [12, 12, 12, 12], 
"firmware version": 512, "comments": "", "keywords": "", "mode": 0, 
"sync interval": 2, "date": "2024-5-8", "time": "20:56:55.429", "channels": [1, 2, 3, 4], "sensor": ["XYZ", "XYZ", "XYZ", "ECG"], "label": ["x", "y", "z", "ECG"], "column": ["nSeq", "DI", "x", "y", "z", "ECG"], "special": [{}, {}, {}, {}], "digital IO": [0, 1], "convertedValues": 0}}
# EndOfHeader
0	0	779	730	632	2229	
1	0	780	731	632	2255	
2	0	780	730	631	2268	
3	0	781	731	632	2265	
4	0	782	730	632	2257	
5	0	781	731	632	2258	
6	0	781	731	633	2274	
7	0	781	731	632	2286	
8	0	781	731	632	2290	
9	0	781	731	632	2292	
10	0	782	730	632	2273	
11	0	782	730	633	2248	
12	0	780	730	632	2235	
13	0	780	730	632	2238	
14	0	781	730	632	2257	
15	0	781	730	632	2274	
16	0	780	730	633	2293	
17	0	781	730	632	2309	
18	0	781	730	632	2326	
19	0	780	731	633	2333	
20	0	781	729	633	2337	
21	0	782	731	633	2326	
22	0	781	730	632	2318	
23	0	780	732	633	2318	
24	0	782	733	633	2295	
25	0	781	730	632	2271	
26	0	780	731	632	2219	
27	0	780	731	632	2176	
28	0	780	731	632	2189	
29	0	780	731	632	2213	
30	0	780	731	632	2238	
31	0	781	731	633	2225	
32	0	780	731	632	2196	
33	0	779	731	632	2176	
34	0	779	731	632	2168	
35	0	781	731	632	2180	
36	0	780	731	633	2160	
37	0	779	731	632	2122	
38	0	779	731	633	2116	
39	0	780	731	633	2123	
40	0	780	731	633	2138	
41	0	780	731	633	2142	
42	0	780	731	633	2141	
43	0	780	731	632	2117	
44	0	781	731	632	2110	
45	0	781	731	632	2088	
46	0	780	731	632	2043	
47	0	780	731	632	2021	
48	0	780	731	632	2019	
49	0	781	731	632	2060	
50	0	781	731	632	2097	
51	0	781	732	633	2128	
52	0	780	731	632	2156	
53	0	780	731	632	2147	
54	0	780	731	632	2163	
55	0	782	731	631	2150	
56	0	781	732	632	2137	
57	0	780	731	632	2143	
58	0	780	731	633	2157	
59	0	781	731	632	2175	
60	0	781	732	632	2180	
61	0	780	732	632	2174	
62	0	781	731	633	2174	
63	0	780	731	632	2174	
64	0	780	731	632	2176	
65	0	780	732	632	2167	
66	0	779	731	632	2167	
67	0	780	732	632	2159	
68	0	779	731	632	2171	
69	0	779	731	632	2173	
70	0	781	731	632	2161	
71	0	780	731	632	2156	
72	0	781	731	633	2144	
73	0	780	730	633	2150	
74	0	780	731	632	2161	
75	0	781	731	633	2163	
76	0	781	731	632	2175	
77	0	781	732	633	2188	
78	0	779	731	632	2193	
79	0	780	731	632	2177	
80	0	780	730	632	2146	
81	0	780	731	632	2129	
82	0	780	731	632	2142	
83	0	780	731	632	2147	
84	0	781	731	632	2144	
85	0	783	731	631	2154	
86	0	781	731	632	2150	
87	0	781	731	631	2167	
88	0	780	731	631	2171	
89	0	780	731	632	2153	
90	0	782	731	631	2156	
91	0	780	732	631	2168	
92	0	780	732	631	2188	
93	0	779	731	631	2191	
94	0	780	731	631	2175	
95	0	780	731	631	2170	
96	0	779	732	632	2184	
97	0	779	731	631	2194	
98	0	779	731	632	2193	
99	0	780	732	632	2192	
100	0	782	731	631	2183	
101	0	780	731	632	2197	
102	0	781	731	632	2213	
103	0	780	731	632	2202	
104	0	781	731	632	2205	
105	0	780	730	633	2197	
106	0	781	732	633	2192	
107	0	780	731	632	2177	
108	0	780	731	631	2150	
109	0	781	731	632	2135	
110	0	783	731	632	2145	
111	0	780	731	633	2163	
112	0	780	731	632	2179	
113	0	781	731	632	2170	
114	0	781	731	632	2159	
115	0	781	731	631	2152	
116	0	780	732	632	2140	
117	0	779	731	632	2128	
118	0	779	732	631	2124	
119	0	780	731	632	2096	
120	0	781	731	631	2090	
121	0	780	732	632	2096	
122	0	779	731	632	2086	
123	0	778	731	632	2080	
124	0	780	731	632	2076	
125	0	779	731	632	2095	
126	0	778	731	632	2106	
127	0	779	731	632	2079	
128	0	779	731	632	2074	
129	0	780	730	632	2076	
130	0	780	731	632	2081	
131	0	779	731	632	2099	
132	0	780	730	632	2099	
133	0	780	731	633	2105	
134	0	780	731	632	2113	
135	0	781	731	632	2120	
136	0	780	731	633	2114	
137	0	780	731	633	2082	
138	0	780	730	633	2080	
139	0	781	730	632	2089	
140	0	781	730	632	2098	
141	0	780	730	633	2101	
142	0	780	730	632	2101	
143	0	780	731	632	2098	
144	0	781	731	633	2108	
145	0	781	731	632	2114	
146	0	779	732	633	2109	
147	0	779	731	633	2104	
148	0	779	731	632	2100	
149	0	779	731	632	2117	
150	0	780	731	633	2123	
151	0	781	730	633	2119	
152	0	780	730	633	2117	
153	0	780	730	633	2106	
154	0	779	731	633	2112	
155	0	780	731	633	2111	
156	0	779	731	633	2089	
157	0	779	731	633	2074	
158	0	780	731	634	2067	
159	0	780	731	632	2067	
160	0	780	731	632	2046	
161	0	780	731	632	2041	
162	0	780	731	632	2050	
163	0	780	731	632	2064	
164	0	781	731	632	2083	
165	0	780	731	632	2079	
166	0	780	730	633	2071	
167	0	780	731	633	2059	
168	0	779	731	633	2059	
169	0	780	731	633	2057	
170	0	780	729	632	2043	
171	0	779	730	633	2055	
172	0	779	731	632	2072	
173	0	779	731	633	2098	
174	0	780	731	634	2101	
175	0	781	732	633	2090	
176	0	781	731	632	2093	
177	0	780	731	632	2082	
178	0	780	732	633	2093	
179	0	781	733	632	2073	
180	0	780	732	633	2045	
181	0	780	731	633	2054	
182	0	779	731	632	2054	
183	0	780	732	632	2078	
184	0	779	732	632	2077	
185	0	780	732	633	2059	
186	0	780	731	633	2063	
187	0	781	732	633	2055	
188	0	780	731	632	2061	
189	0	779	732	633	2048	
190	0	780	732	633	2021	
191	0	779	730	632	2039	
192	0	780	732	632	2060	
193	0	779	731	632	2082	
194	0	779	731	633	2092	
195	0	780	732	633	2080	
196	0	780	730	632	2084	
197	0	779	731	632	2068	
198	0	780	732	632	2058	
199	0	780	733	632	2026	
200	0	779	731	632	1975	
201	0	778	730	632	1987	
202	0	780	732	632	2026	
203	0	780	731	632	2061	
204	0	780	731	631	2088	
205	0	780	731	633	2094	
206	0	778	730	633	2105	
207	0	779	731	633	2105	
208	0	780	731	632	2091	
209	0	779	731	633	2047	
210	0	780	732	632	1996	
211	0	778	730	632	1983	
212	0	780	732	632	1994	
213	0	780	731	632	2006	
214	0	779	731	631	2031	
215	0	779	732	632	2069	
216	0	780	732	633	2117	
217	0	779	731	632	2136	
218	0	779	731	632	2125	
219	0	779	730	632	2068	
220	0	780	730	632	2029	
221	0	778	730	632	2024	
222	0	780	731	633	2030	
223	0	778	731	632	2035	
224	0	779	731	633	2027	
225	0	779	732	633	2032	
226	0	778	730	633	2062	
227	0	779	731	633	2084	
228	0	779	731	632	2086	
229	0	779	731	631	2061	
230	0	781	730	632	2042	
231	0	779	731	633	2054	
232	0	781	731	633	2055	
233	0	780	731	632	2037	
234	0	780	731	632	2001	
235	0	781	732	633	2008	
236	0	779	731	632	2040	
237	0	780	732	632	2047	
238	0	780	732	632	2055	
239	0	780	731	631	2025	
240	0	780	731	633	2032	
241	0	779	731	632	2069	
242	0	780	732	633	2105	
243	0	779	731	632	2121	
244	0	779	731	632	2100	
245	0	779	732	633	2121	
246	0	778	731	632	2156	
247	0	778	731	632	2170	
248	0	779	731	633	2170	
249	0	781	730	632	2132	
250	0	781	730	633	2127	
251	0	780	730	633	2131	
252	0	781	731	633	2139	
253	0	780	731	632	2130	
254	0	779	731	632	2109	
255	0	780	732	633	2137	
256	0	779	730	633	2162	
257	0	779	731	633	2178	
258	0	780	732	633	2158	
259	0	781	731	632	2070	
260	0	781	730	633	2051	
261	0	779	731	632	2045	
262	0	780	732	633	2070	
263	0	779	731	631	2071	
264	0	780	731	632	2061	
265	0	780	732	632	2095	
266	0	779	731	632	2111	
267	0	779	731	632	2122	
268	0	779	731	632	2096	
269	0	780	731	631	2054	
270	0	780	731	633	2059	
271	0	779	730	632	2059	
272	0	780	731	632	2070	
273	0	779	731	632	2043	
274	0	779	731	632	2032	
275	0	780	732	632	2064	
276	0	778	730	632	2070	
277	0	780	732	632	2092	
278	0	780	731	632	2053	
279	0	780	731	631	2026	
280	0	780	731	632	2023	
281	0	779	730	632	1994	
282	0	780	731	632	2013	
283	0	780	731	632	2000	
284	0	780	731	631	2002	
285	0	780	731	632	2032	
286	0	781	731	632	2051	
287	0	780	731	632	2086	
288	0	780	731	633	2088	
289	0	781	731	634	2088	
290	0	780	731	631	2087	
291	0	781	731	632	2069	
292	0	780	730	632	2067	
293	0	780	730	632	2018	
294	0	779	730	631	2000	
295	0	780	731	632	2018	
296	0	779	730	632	2045	
297	0	781	731	632	2081	
298	0	780	731	632	2070	
299	0	780	731	632	2054	
300	0	780	731	632	2047	
301	0	781	731	633	2029	
302	0	781	731	632	2044	
303	0	780	731	632	2041	
304	0	780	732	631	2040	
305	0	780	732	632	2052	
306	0	780	732	632	2054	
307	0	779	731	632	2071	
308	0	780	732	633	2058	
309	0	781	732	632	2037	
310	0	780	729	632	2037	
311	0	780	731	632	2041	
312	0	780	731	632	2063	
313	0	780	731	632	2043	
314	0	779	730	632	2027	
315	0	780	731	633	2042	
316	0	779	730	633	2051	
317	0	780	731	633	2084	
318	0	779	731	632	2077	
319	0	779	730	632	2071	
320	0	780	731	633	2065	
321	0	779	730	632	2039	
322	0	780	731	633	2043	
323	0	779	731	632	2015	
324	0	779	731	631	1993	
325	0	780	730	632	1999	
326	0	780	730	632	2009	
327	0	781	731	633	2039	
328	0	782	731	632	2041	
329	0	781	731	632	2035	
330	0	780	732	632	2033	
331	0	780	732	632	2039	
332	0	779	731	632	2048	
333	0	779	731	633	2050	
334	0	780	731	632	2044	
335	0	780	732	632	2035	
336	0	780	732	633	2038	
337	0	779	731	633	2042	
338	0	779	731	633	2054	
339	0	779	731	631	2028	
340	0	779	731	632	1999	
341	0	778	732	632	2000	
342	0	779	732	632	1997	
343	0	779	730	632	2013	
344	0	779	730	632	2014	
345	0	780	732	632	2027	
346	0	780	732	633	2053	
347	0	780	731	632	2064	
348	0	780	731	633	2089	
349	0	781	732	631	2071	
350	0	779	732	632	2043	
351	0	779	731	632	2029	
352	0	780	732	632	2020	
353	0	779	731	632	2009	
354	0	779	731	631	2012	
355	0	780	732	633	2009	
356	0	779	731	632	2027	
357	0	781	732	633	2069	
358	0	779	732	632	2102	
359	0	781	731	632	2123	
360	0	780	732	632	2100	
361	0	779	731	632	2044	
362	0	779	731	632	2028	
363	0	778	731	632	2021	
364	0	778	731	631	2021	
365	0	779	732	632	2035	
366	0	779	732	632	2019	
367	0	780	731	633	2023	
368	0	780	731	632	2048	
369	0	779	731	632	2046	
370	0	779	731	632	2053	
371	0	778	731	633	2014	
372	0	780	732	633	1977	
373	0	779	731	632	1963	
374	0	779	731	631	1967	
375	0	780	732	632	1979	
376	0	779	730	632	1993	
377	0	781	731	633	1973	
378	0	779	731	632	1973	
379	0	779	731	633	1985	
380	0	779	732	633	1962	
381	0	778	731	632	1967	
382	0	779	730	632	1942	
383	0	779	732	633	1944	
384	0	780	731	632	1956	
385	0	779	731	632	1968	
386	0	778	731	633	1987	
387	0	779	731	633	1991	
388	0	779	731	632	1987	
389	0	780	731	631	1980	
390	0	780	731	632	1990	
391	0	778	731	632	1987	
392	0	779	731	632	1996	
393	0	779	730	632	1958	
394	0	779	730	632	1939	
395	0	779	732	632	1947	
396	0	780	732	632	1957	
397	0	779	731	632	1985	
398	0	779	731	632	1992	
399	0	779	731	632	1981	
400	0	780	731	632	1968	
401	0	779	730	632	1972	
402	0	780	731	633	1959	
403	0	779	730	631	1958	
404	0	779	730	631	1930	
405	0	779	731	633	1921	
406	0	778	731	632	1927	
407	0	780	732	632	1938	
408	0	779	731	632	1960	
409	0	779	731	632	1960	
410	0	780	731	633	1940	
411	0	778	730	632	1914	
412	0	779	731	632	1916	
413	0	779	730	633	1915	
414	0	780	732	631	1935	
415	0	779	731	632	1931	
416	0	780	732	632	1942	
417	0	779	731	632	1969	
418	0	778	731	632	2007	
419	0	779	731	632	2026	
420	0	779	732	632	2016	
421	0	778	731	632	1973	
422	0	780	731	633	1939	
423	0	780	730	631	1941	
424	0	779	731	631	1950	
425	0	780	731	633	1979	
426	0	779	731	632	1981	
427	0	779	730	632	1979	
428	0	780	730	633	1993	
429	0	781	731	634	2016	
430	0	780	732	632	2011	
431	0	780	732	632	2006	
432	0	779	731	632	1966	
433	0	779	731	632	1934	
434	0	779	731	632	1930	
435	0	780	731	633	1953	
436	0	779	730	633	1973	
437	0	781	731	633	2006	
438	0	780	730	632	2024	
439	0	780	731	632	2045	
440	0	781	730	632	2073	
441	0	780	731	633	2063	
442	0	781	731	633	2050	
443	0	780	730	632	2001	
444	0	779	731	632	1958	
445	0	780	731	632	1946	
446	0	780	730	633	1982	
447	0	781	731	632	2003	
448	0	780	730	632	2037	
449	0	780	731	632	2033	
450	0	781	731	632	2028	
451	0	780	730	632	2039	
452	0	779	730	632	2063	
453	0	780	730	632	2052	
454	0	779	731	632	2055	
455	0	779	730	632	2026	
456	0	780	730	632	2021	
457	0	780	730	632	2040	
458	0	780	730	632	2078	
459	0	780	731	633	2093	
460	0	780	731	632	2095	
461	0	779	731	632	2059	
462	0	779	730	632	2028	
463	0	779	730	632	2015	
464	0	779	731	632	2009	
465	0	781	730	632	2016	
466	0	780	731	633	2021	
467	0	781	731	633	2014	
468	0	780	730	633	2023	
469	0	780	731	633	2048	
470	0	781	731	632	2074	
471	0	781	731	632	2105	
472	0	780	730	632	2107	
473	0	780	730	632	2088	
474	0	780	731	632	2060	
475	0	779	731	632	2071	
476	0	780	731	633	2082	
477	0	779	730	632	2110	
478	0	779	730	632	2136	
479	0	779	731	633	2136	
480	0	779	731	632	2120	
481	0	779	731	633	2116	
482	0	779	730	632	2078	
483	0	779	730	633	2061	
484	0	780	731	632	2000	
485	0	779	731	631	1964	
486	0	780	731	633	1961	
487	0	779	730	632	1981	
488	0	779	730	632	1986	
489	0	779	732	631	2015	
490	0	780	731	631	2028	
491	0	780	731	633	2040	
492	0	779	731	633	2037	
493	0	779	730	633	2029	
494	0	779	731	632	1981	
495	0	780	732	633	1966	
496	0	780	732	633	1916	
497	0	779	732	632	1879	
498	0	780	731	632	1876	
499	0	779	731	632	1881	
500	0	781	731	633	1844	
501	0	779	731	632	1803	
502	0	781	731	632	1717	
503	0	778	730	631	1643	
504	0	779	731	633	1596	
505	0	778	731	632	1595	
506	0	778	731	632	1583	
507	0	780	731	632	1609	
508	0	778	730	633	1622	
509	0	779	731	634	1648	
510	0	780	732	633	1694	
511	0	780	731	633	1757	
512	0	780	731	632	1774	
513	0	780	730	632	1789	
514	0	779	731	632	1755	
515	0	779	732	632	1737	
516	0	779	731	632	1749	
517	0	779	731	632	1811	
518	0	780	730	633	1875	
519	0	781	732	633	1956	
520	0	781	733	633	2007	
521	0	780	731	632	2049	
522	0	780	732	632	2096	
523	0	780	732	633	2165	
524	0	781	732	633	2222	
525	0	781	734	633	2317	
526	0	780	732	633	2403	
527	0	780	732	633	2484	
528	0	780	732	635	2573	
529	0	781	732	635	2665	
530	0	781	734	634	2720	
531	0	780	732	633	2753	
532	0	780	732	633	2736	
533	0	781	731	633	2681	
534	0	780	732	632	2640	
535	0	781	733	632	2623	
536	0	780	732	632	2588	
537	0	779	731	632	2560	
538	0	779	731	631	2538	
539	0	779	732	632	2488	
540	0	780	732	631	2439	
541	0	779	731	632	2401	
542	0	779	731	632	2342	
543	0	778	731	632	2274	
544	0	777	732	632	2214	
545	0	779	732	632	2156	
546	0	778	731	632	2138	
547	0	778	731	632	2159	
548	0	778	731	632	2184	
549	0	778	732	632	2190	
550	0	779	732	632	2192	
551	0	779	731	633	2156	
552	0	779	731	632	2112	
553	0	780	731	632	2065	
554	0	779	732	632	2043	
555	0	780	732	632	2007	
556	0	779	731	632	2000	
557	0	780	731	632	1974	
558	0	780	731	632	1991	
559	0	780	732	632	2035	
560	0	782	733	632	2077	
561	0	781	732	632	2089	
562	0	781	731	632	2100	
563	0	780	731	632	2058	
564	0	779	731	632	2018	
565	0	778	731	632	1996	
566	0	778	731	632	2002	
567	0	779	730	632	1973	
568	0	778	731	632	1976	
569	0	776	732	632	1976	
570	0	777	731	632	1985	
571	0	776	731	632	2011	
572	0	775	730	632	2039	
573	0	775	731	632	2020	
574	0	774	731	632	2008	
575	0	775	731	632	1980	
576	0	775	731	632	1943	
577	0	775	731	632	1933	
578	0	775	731	632	1964	
579	0	775	732	632	1986	
580	0	776	731	632	1998	
581	0	777	731	632	2016	
582	0	777	731	632	2000	
583	0	778	730	633	1989	
584	0	777	732	633	1998	
585	0	779	732	633	2019	
586	0	780	731	633	1997	
587	0	781	732	633	1996	
588	0	781	730	633	1966	
589	0	782	731	632	1959	
590	0	783	731	632	1976	
591	0	784	732	633	2012	
592	0	784	732	633	2008	
593	0	783	731	633	2013	
594	0	783	730	633	1979	
595	0	784	731	634	1971	
596	0	783	730	633	1980	
597	0	784	731	633	2016	
598	0	783	731	633	2025	
599	0	782	730	633	2037	
600	0	782	731	634	2039	
601	0	780	731	633	2024	
602	0	780	730	633	2020	
603	0	779	729	633	2027	
604	0	780	730	633	2029	
605	0	778	730	634	2011	
606	0	778	730	634	2007	
607	0	776	729	633	1954	
608	0	777	728	633	1945	
609	0	776	730	636	1951	
610	0	776	730	633	1987	
611	0	778	730	634	2005	
612	0	777	729	633	2029	
613	0	777	729	633	2004	
614	0	777	730	633	1985	
615	0	778	730	634	1987	
616	0	777	729	633	2007	
617	0	778	730	634	1993	
618	0	778	729	632	1982	
619	0	777	729	632	1970	
620	0	778	730	632	1950	
621	0	778	730	633	1961	
622	0	779	729	633	1989	
623	0	779	730	633	2009	
624	0	778	731	633	1994	
625	0	779	731	632	2002	
626	0	779	730	633	1961	
627	0	779	730	632	1939	
628	0	779	730	632	1945	
629	0	779	731	632	1975	
630	0	780	732	632	1972	
631	0	779	731	632	1990	
632	0	779	731	633	1987	
633	0	779	731	633	1963	
634	0	779	731	633	1956	
635	0	780	732	633	1975	
636	0	778	731	633	1980	
637	0	780	731	632	1963	
638	0	779	731	632	1965	
639	0	778	732	632	1950	
640	0	780	733	632	1955	
641	0	780	731	633	1989	
642	0	780	731	633	2022	
643	0	779	731	633	2007	
644	0	778	731	633	2006	
645	0	779	732	633	1951	
646	0	779	731	632	1904	
647	0	780	731	632	1875	
648	0	779	731	632	1881	
649	0	779	731	632	1870	
650	0	779	732	632	1888	
651	0	779	731	632	1904	
652	0	780	732	633	1928	
653	0	778	732	632	1947	
654	0	780	731	631	1992	
655	0	781	732	632	2013	
656	0	779	731	632	2009	
657	0	781	732	632	1994	
658	0	780	732	632	1941	
659	0	781	731	631	1911	
660	0	781	732	632	1918	
661	0	779	731	632	1948	
662	0	780	731	632	1958	
663	0	780	731	632	1986	
664	0	780	731	635	1977	
665	0	779	732	632	1968	
666	0	779	731	632	1974	
667	0	780	732	632	1995	
668	0	779	732	632	1976	
669	0	780	732	631	1967	
670	0	780	732	632	1938	
671	0	779	731	632	1903	
672	0	780	731	632	1904	
673	0	780	730	632	1934	
674	0	781	731	635	1945	
675	0	780	731	632	1951	
676	0	781	731	632	1967	
677	0	779	731	632	1958	
678	0	779	731	632	1967	
679	0	780	731	634	1973	
680	0	780	731	632	1977	
681	0	780	732	632	1939	
682	0	779	731	632	1940	
683	0	779	730	633	1918	
684	0	780	731	635	1900	
685	0	779	731	633	1914	
686	0	780	732	633	1951	
687	0	779	731	633	1960	
688	0	779	731	633	1981	
689	0	780	732	636	1980	
690	0	780	732	633	1972	
691	0	780	732	633	1980	
692	0	779	731	633	1997	
693	0	779	731	633	2004	
694	0	779	731	635	1982	
695	0	779	731	633	1991	
696	0	779	730	633	1965	
697	0	779	731	633	1942	
698	0	779	731	633	1958	
699	0	779	730	633	1984	
700	0	780	731	634	1963	
701	0	779	730	633	1970	
702	0	779	730	633	1963	
703	0	778	730	633	1964	
704	0	779	730	633	1984	
705	0	780	731	633	2018	
706	0	780	730	634	2026	
707	0	779	730	632	2014	
708	0	779	730	632	2004	
709	0	780	730	632	1948	
710	0	780	730	633	1914	
711	0	779	729	632	1911	
712	0	780	730	633	1928	
713	0	778	730	632	1907	
714	0	780	730	632	1929	
715	0	779	731	633	1935	
716	0	779	729	633	1936	
717	0	780	731	633	1947	
718	0	779	730	632	1965	
719	0	780	730	632	1944	
720	0	780	730	632	1913	
721	0	779	729	631	1893	
722	0	779	730	632	1866	
723	0	778	730	632	1865	
724	0	779	729	632	1895	
725	0	779	730	633	1922	
726	0	779	729	632	1900	
727	0	781	729	632	1910	
728	0	779	730	632	1888	
729	0	779	730	632	1879	
730	0	780	731	632	1902	
731	0	779	730	632	1951	
732	0	780	730	632	1970	
733	0	780	731	632	1978	
734	0	779	731	632	1973	
735	0	779	731	632	1948	
736	0	779	730	631	1929	
737	0	779	731	632	1928	
738	0	779	731	632	1939	
739	0	779	731	632	1905	
740	0	780	731	632	1895	
741	0	779	729	633	1853	
742	0	779	730	632	1836	
743	0	779	730	632	1857	
744	0	779	731	632	1900	
745	0	780	731	633	1921	
746	0	779	730	632	1945	
747	0	779	731	633	1935	
748	0	779	731	632	1910	
749	0	779	731	632	1897	
750	0	779	731	632	1901	
751	0	778	731	632	1900	
752	0	778	731	632	1862	
753	0	779	732	632	1851	
754	0	778	731	633	1832	
755	0	779	731	633	1842	
756	0	779	731	632	1888	
757	0	778	731	632	1944	
758	0	779	732	632	1967	
759	0	778	732	632	1991	
760	0	778	732	632	1958	
761	0	778	731	632	1916	
762	0	779	732	632	1910	
763	0	779	731	632	1915	
764	0	778	732	632	1916	
765	0	779	732	632	1901	
766	0	778	731	632	1901	
767	0	778	732	632	1865	
768	0	778	731	632	1864	
769	0	778	732	632	1890	
770	0	779	732	632	1929	
771	0	778	732	632	1938	
772	0	779	732	632	1953	
773	0	779	731	632	1931	
774	0	779	732	632	1915	
775	0	779	732	632	1932	
776	0	779	730	632	1960	
777	0	779	731	632	1962	
778	0	779	731	632	1953	
779	0	779	731	632	1941	
780	0	779	732	633	1900	
781	0	778	730	632	1904	
782	0	778	731	632	1944	
783	0	778	732	632	1980	
784	0	779	732	632	2001	
785	0	778	731	632	2029	
786	0	779	731	632	2032	
787	0	779	731	632	2018	
788	0	779	731	632	2022	
789	0	778	731	632	2033	
790	0	779	731	632	2037	
791	0	778	731	632	2021	
792	0	779	731	633	2004	
793	0	777	731	633	1977	
794	0	778	731	633	1972	
795	0	778	731	633	1995	
796	0	779	731	633	2029	
797	0	778	731	632	2054	
798	0	778	731	633	2063	
799	0	779	731	635	2067	
800	0	778	730	634	2065	
801	0	779	730	634	2053	
802	0	778	730	632	2053	
803	0	778	730	633	2073	
804	0	780	731	633	2080	
805	0	779	730	633	2079	
806	0	779	731	633	2098	
807	0	778	730	633	2121	
808	0	777	730	633	2128	
809	0	779	731	634	2140	
810	0	779	730	633	2157	
811	0	779	730	633	2153	
812	0	778	729	632	2147	
813	0	778	730	634	2166	
814	0	779	730	634	2189	
815	0	779	730	634	2215	
816	0	779	730	634	2245	
817	0	778	730	633	2256	
818	0	778	730	633	2238	
819	0	779	730	635	2185	
820	0	779	730	633	2142	
821	0	779	730	633	2098	
822	0	778	730	633	2080	
823	0	777	730	633	2105	
824	0	778	731	633	2129	
825	0	777	730	632	2143	
826	0	777	729	632	2166	
827	0	778	731	633	2191	
828	0	777	730	632	2195	
829	0	778	730	633	2202	
830	0	778	730	633	2223	
831	0	778	730	632	2230	
832	0	778	730	634	2208	
833	0	776	731	632	2188	
834	0	777	730	633	2185	
835	0	779	730	634	2191	
836	0	780	730	633	2218	
837	0	779	730	633	2251	
838	0	779	730	633	2275	
839	0	779	732	632	2276	
840	0	779	731	633	2283	
841	0	779	730	632	2283	
842	0	780	731	633	2281	
843	0	778	731	632	2284	
844	0	779	730	633	2282	
845	0	780	730	634	2249	
846	0	779	732	633	2218	
847	0	778	731	632	2205	
848	0	778	730	632	2192	
849	0	779	731	632	2170	
850	0	779	731	633	2182	
851	0	779	731	632	2187	
852	0	779	731	633	2172	
853	0	778	731	632	2168	
854	0	778	731	632	2195	
855	0	779	731	633	2228	
856	0	778	730	632	2258	
857	0	778	731	632	2286	
858	0	779	731	633	2300	
859	0	779	731	633	2261	
860	0	780	731	634	2226	
861	0	779	731	633	2203	
862	0	779	730	632	2175	
863	0	779	730	633	2173	
864	0	779	730	632	2191	
865	0	779	730	633	2194	
866	0	779	730	632	2176	
867	0	778	732	632	2171	
868	0	778	731	632	2174	
869	0	777	730	632	2162	
870	0	777	730	632	2179	
871	0	776	730	632	2212	
872	0	777	730	632	2216	
873	0	777	730	632	2211	
874	0	778	731	632	2224	
875	0	778	731	632	2218	
876	0	780	731	632	2209	
877	0	780	731	632	2205	
878	0	781	731	632	2202	
879	0	781	730	633	2151	
880	0	782	731	632	2127	
881	0	781	730	632	2084	
882	0	782	730	632	2064	
883	0	781	731	632	2072	
884	0	781	731	633	2104	
885	0	781	731	632	2125	
886	0	780	730	633	2127	
887	0	779	730	633	2135	
888	0	779	730	632	2116	
889	0	779	730	632	2097	
890	0	779	731	633	2086	
891	0	778	730	633	2075	
892	0	778	730	633	2016	
893	0	778	730	633	1982	
894	0	779	731	633	1940	
895	0	778	731	631	1940	
896	0	777	731	632	1967	
897	0	778	731	632	2022	
898	0	778	731	632	2077	
899	0	777	731	631	2092	
900	0	779	732	632	2099	
901	0	778	730	631	2041	
902	0	777	730	631	1987	
903	0	777	731	631	1958	
904	0	778	731	632	1958	
905	0	779	730	633	1959	
906	0	778	730	632	1952	
907	0	777	730	632	1959	
908	0	777	730	633	1965	
909	0	778	730	633	1979	
910	0	777	730	633	2019	
911	0	778	730	633	2064	
912	0	777	730	633	2053	
913	0	778	730	633	2052	
914	0	778	730	633	2020	
915	0	777	730	633	2002	
916	0	778	730	632	1995	
917	0	777	729	632	2013	
918	0	777	730	631	2025	
919	0	777	730	632	2004	
920	0	778	730	633	2007	
921	0	778	731	633	1978	
922	0	777	729	632	1980	
923	0	778	729	634	2003	
924	0	779	730	633	2041	
925	0	779	730	633	2055	
926	0	779	729	633	2048	
927	0	780	730	633	2034	
928	0	780	730	632	1996	
929	0	779	729	632	1973	
930	0	779	730	633	1974	
931	0	780	731	632	1988	
932	0	779	730	632	1944	
933	0	779	730	632	1933	
934	0	780	730	633	1906	
935	0	780	730	633	1909	
936	0	780	731	633	1927	
937	0	779	731	632	1966	
938	0	779	731	634	2015	
939	0	780	731	632	2007	
940	0	780	731	633	1989	
941	0	779	731	632	1938	
942	0	779	731	632	1921	
943	0	778	731	632	1927	
944	0	780	730	632	1964	
945	0	779	731	633	1970	
946	0	779	731	632	1949	
947	0	779	731	632	1950	
948	0	779	731	632	1934	
949	0	779	731	631	1939	
950	0	779	731	632	1968	
951	0	778	732	632	2001	
952	0	778	731	631	1988	
953	0	778	731	632	1984	
954	0	779	730	632	1968	
955	0	778	731	633	1969	
956	0	778	731	632	1984	
957	0	778	731	632	2002	
958	0	778	731	632	1999	
959	0	779	731	632	1936	
960	0	779	731	633	1910	
961	0	778	730	633	1874	
962	0	778	730	633	1867	
963	0	778	730	633	1880	
964	0	778	730	633	1912	
965	0	780	731	633	1946	
966	0	779	730	632	1944	
967	0	779	730	632	1972	
968	0	779	730	632	1966	
969	0	779	730	632	1958	
970	0	780	731	632	1954	
971	0	779	730	631	1958	
972	0	780	731	632	1960	
973	0	781	730	632	1909	
974	0	779	730	632	1916	
975	0	780	731	632	1896	
976	0	780	730	632	1894	
977	0	781	731	632	1906	
978	0	782	730	632	1939	
979	0	780	731	631	1966	
980	0	781	731	633	1968	
981	0	780	729	632	1991	
982	0	779	730	632	1960	
983	0	779	730	632	1938	
984	0	780	731	632	1935	
985	0	780	730	633	1954	
986	0	781	731	632	1969	
987	0	780	730	631	1948	
988	0	780	731	632	1961	
989	0	781	731	632	1950	
990	0	780	731	633	1958	
991	0	781	731	632	1989	
992	0	780	731	631	2016	
993	0	779	731	631	2013	
994	0	780	731	632	1974	
995	0	779	731	632	1963	
996	0	779	731	632	1931	
997	0	778	731	632	1936	
998	0	778	730	632	1971	
999	0	778	730	632	2014	
1000	0	779	731	633	2020	
1001	0	780	731	632	1984	
1002	0	779	731	631	1956	
1003	0	779	731	630	1916	
1004	0	779	732	632	1906	
1005	0	779	731	633	1933	
1006	0	780	732	632	1985	
1007	0	779	731	632	2013	
1008	0	779	731	631	2019	
1009	0	778	731	632	2016	
1010	0	779	731	632	1996	
1011	0	778	731	632	1996	
1012	0	778	731	632	2017	
1013	0	779	731	632	2021	
1014	0	779	731	632	1997	
1015	0	779	731	632	1972	
1016	0	778	731	632	1970	
1017	0	779	731	632	1968	
1018	0	778	732	631	2000	
1019	0	778	731	632	2033	
1020	0	779	731	633	2047	
1021	0	778	731	632	2022	
1022	0	779	731	633	1997	
1023	0	779	731	632	1976	
1024	0	780	731	633	1953	
1025	0	779	731	633	1971	
1026	0	778	731	632	2006	
1027	0	779	731	632	2025	
1028	0	778	730	632	2007	
1029	0	778	731	632	1987	
1030	0	778	731	632	1974	
1031	0	777	731	632	1942	
1032	0	778	731	632	1935	
1033	0	779	731	632	1942	
1034	0	780	731	632	1939	
1035	0	780	732	632	1928	
1036	0	779	731	632	1937	
1037	0	780	731	631	1965	
1038	0	779	730	631	1994	
1039	0	778	731	632	2008	
1040	0	780	731	633	2012	
1041	0	779	731	632	2000	
1042	0	779	731	633	1972	
1043	0	781	731	632	1942	
1044	0	779	731	632	1926	
1045	0	779	731	633	1893	
1046	0	778	730	633	1880	
1047	0	778	731	633	1890	
1048	0	779	731	633	1919	
1049	0	778	730	632	1926	
1050	0	778	731	633	1934	
1051	0	778	731	632	1938	
1052	0	779	731	632	1920	
1053	0	778	730	632	1914	
1054	0	779	731	632	1943	
1055	0	779	732	633	1990	
1056	0	779	731	632	1997	
1057	0	779	731	632	1981	
1058	0	778	730	632	1977	
1059	0	779	730	633	1952	
1060	0	779	731	633	1952	
1061	0	779	731	632	1987	
1062	0	779	731	632	2023	
1063	0	780	730	632	2018	
1064	0	779	730	633	1986	
1065	0	779	731	634	1953	
1066	0	778	731	632	1917	
1067	0	778	731	632	1915	
1068	0	777	731	632	1946	
1069	0	778	730	633	1987	
1070	0	779	731	633	1998	
1071	0	778	731	632	1976	
1072	0	779	731	631	1957	
1073	0	778	731	631	1918	
1074	0	777	730	633	1916	
1075	0	778	731	634	1939	
1076	0	778	730	633	1975	
1077	0	778	730	633	1975	
1078	0	778	730	633	1973	
1079	0	778	731	632	1970	
1080	0	779	731	633	1954	
1081	0	778	730	633	1966	
1082	0	779	731	632	1990	
1083	0	778	731	632	2006	
1084	0	779	731	633	1986	
1085	0	777	731	632	1949	
1086	0	779	731	633	1929	
1087	0	778	730	632	1897	
1088	0	779	730	632	1923	
1089	0	779	731	632	1964	
1090	0	779	731	633	1994	
1091	0	779	731	632	1992	
1092	0	780	731	632	1963	
1093	0	781	730	631	1947	
1094	0	779	730	632	1906	
1095	0	780	731	632	1915	
1096	0	779	731	632	1937	
1097	0	779	731	632	1947	
1098	0	778	731	631	1955	
1099	0	779	732	632	1956	
1100	0	779	731	632	1981	
1101	0	779	731	632	1980	
1102	0	779	731	632	1992	
1103	0	779	731	632	1987	
1104	0	779	730	632	1969	
1105	0	778	731	633	1935	
1106	0	779	730	632	1873	
1107	0	780	731	632	1879	
1108	0	781	730	632	1878	
1109	0	779	731	632	1902	
1110	0	778	731	634	1915	
1111	0	778	731	633	1920	
1112	0	778	731	633	1923	
1113	0	779	730	632	1885	
1114	0	779	731	632	1907	
1115	0	780	731	633	1917	
1116	0	779	730	632	1928	
1117	0	779	730	632	1937	
1118	0	778	730	632	1972	
1119	0	779	731	633	2002	
1120	0	778	730	633	1950	
1121	0	780	731	633	1932	
1122	0	778	730	632	1891	
1123	0	779	730	631	1878	
1124	0	779	731	633	1891	
1125	0	779	731	634	1935	
1126	0	779	731	633	1990	
1127	0	779	731	633	1999	
1128	0	781	730	632	1996	
1129	0	778	731	632	1969	
1130	0	779	731	632	1948	
1131	0	779	731	632	1935	
1132	0	780	731	633	1941	
1133	0	781	730	632	1928	
1134	0	779	730	633	1889	
1135	0	778	731	632	1875	
1136	0	779	732	632	1869	
1137	0	778	731	632	1886	
1138	0	778	731	631	1934	
1139	0	779	731	633	1978	
1140	0	779	731	633	2010	
1141	0	780	732	632	2001	
1142	0	779	731	632	1966	
1143	0	779	730	631	1938	
1144	0	780	731	633	1905	
1145	0	779	730	634	1893	
1146	0	779	730	633	1902	
1147	0	778	730	632	1908	
1148	0	780	730	631	1905	
1149	0	780	730	633	1898	
1150	0	780	730	633	1942	
1151	0	781	731	633	1991	
1152	0	780	731	632	2031	
1153	0	779	731	632	2046	
1154	0	780	731	633	2021	
1155	0	779	730	634	1969	
1156	0	779	730	632	1902	
1157	0	780	731	632	1894	
1158	0	778	731	632	1873	
1159	0	779	731	632	1903	
1160	0	779	731	633	1932	
1161	0	778	731	632	1955	
1162	0	779	731	633	1971	
1163	0	780	730	632	1955	
1164	0	779	730	633	1975	
1165	0	778	731	632	1967	
1166	0	779	730	632	1948	
1167	0	780	731	633	1923	
1168	0	781	729	632	1913	
1169	0	779	730	632	1907	
1170	0	780	731	632	1895	
1171	0	779	730	632	1916	
1172	0	780	731	633	1946	
1173	0	781	729	631	1956	
1174	0	779	730	633	1962	
1175	0	779	730	633	1969	
1176	0	780	731	633	1972	
1177	0	779	731	632	1951	
1178	0	779	730	632	1932	
1179	0	780	731	633	1932	
1180	0	778	731	632	1911	
1181	0	780	732	632	1937	
1182	0	779	731	632	1962	
1183	0	779	731	631	1981	
1184	0	779	731	633	1987	
1185	0	779	731	632	1945	
1186	0	779	731	632	1942	
1187	0	779	731	632	1902	
1188	0	778	730	632	1886	
1189	0	778	731	632	1891	
1190	0	778	731	633	1919	
1191	0	778	731	632	1962	
1192	0	778	731	632	1947	
1193	0	778	731	632	1947	
1194	0	779	731	632	1929	
1195	0	778	731	632	1939	
1196	0	778	731	632	1960	
1197	0	779	731	632	1991	
1198	0	779	731	632	2021	
1199	0	780	731	633	2002	
1200	0	779	731	633	1981	
1201	0	779	730	632	1971	
1202	0	780	729	633	1945	
1203	0	780	730	633	1941	
1204	0	779	730	633	1951	
1205	0	778	730	633	1961	
1206	0	780	730	632	1952	
1207	0	779	730	632	1916	
1208	0	779	731	632	1928	
1209	0	779	731	633	1924	
1210	0	779	731	633	1954	
1211	0	779	731	632	1982	
1212	0	780	731	633	2005	
1213	0	780	731	632	1999	
1214	0	780	731	633	1939	
1215	0	779	730	633	1940	
1216	0	779	730	632	1929	
1217	0	780	731	633	1955	
1218	0	780	729	633	1971	
1219	0	780	730	633	1991	
1220	0	780	731	633	1994	
1221	0	779	731	631	1964	
1222	0	779	730	632	1968	
1223	0	779	731	632	1957	
1224	0	780	731	633	1961	
1225	0	779	731	632	1974	
1226	0	780	731	632	1995	
1227	0	779	730	632	2013	
1228	0	779	729	632	1999	
1229	0	780	730	632	1984	
1230	0	778	730	633	1981	
1231	0	780	731	632	1979	
1232	0	779	730	632	1988	
1233	0	779	730	632	1995	
1234	0	780	730	633	1996	
1235	0	779	730	634	1968	
1236	0	779	730	632	1921	
1237	0	780	731	633	1921	
1238	0	779	729	632	1916	
1239	0	779	731	632	1932	
1240	0	779	731	633	1958	
1241	0	779	730	632	1987	
1242	0	778	731	633	2016	
1243	0	779	731	632	1998	
1244	0	780	731	632	2019	
1245	0	780	732	632	2013	
1246	0	778	732	631	2025	
1247	0	778	731	633	2032	
1248	0	779	730	633	2030	
1249	0	780	731	633	2005	
1250	0	779	731	633	1951	
1251	0	780	730	632	1940	
1252	0	780	730	632	1951	
1253	0	780	730	632	1969	
1254	0	780	731	633	2005	
1255	0	779	730	632	2027	
1256	0	780	731	633	2032	
1257	0	779	730	632	2023	
1258	0	779	730	633	1990	
1259	0	781	730	632	2002	
1260	0	779	731	633	1988	
1261	0	779	730	632	2000	
1262	0	780	731	633	2014	
1263	0	779	730	632	2014	
1264	0	781	730	632	2020	
1265	0	779	731	633	1986	
1266	0	780	731	631	1987	
1267	0	779	731	632	1976	
1268	0	779	730	632	1970	
1269	0	779	730	633	1981	
1270	0	778	731	633	1999	
1271	0	778	730	632	2023	
1272	0	778	730	632	2005	
1273	0	779	730	632	1961	
1274	0	778	730	632	1956	
1275	0	778	730	633	1938	
1276	0	777	730	631	1953	
1277	0	778	730	633	1963	
1278	0	778	730	633	1981	
1279	0	778	730	632	1982	
1280	0	778	730	633	1919	
1281	0	778	731	631	1917	
1282	0	778	730	632	1909	
1283	0	778	730	632	1918	
1284	0	778	730	632	1931	
1285	0	778	731	633	1961	
1286	0	778	730	632	1978	
1287	0	778	731	633	1964	
1288	0	779	730	633	1967	
1289	0	780	731	632	1975	
1290	0	779	731	633	1979	
1291	0	779	732	633	1996	
1292	0	779	731	632	2008	
1293	0	778	731	632	1999	
1294	0	780	731	632	1962	
1295	0	781	731	633	1918	
1296	0	779	730	632	1911	
1297	0	778	731	632	1896	
1298	0	779	731	632	1924	
1299	0	778	731	634	1954	
1300	0	778	731	633	1979	
1301	0	779	731	634	1976	
1302	0	779	730	633	1925	
1303	0	779	731	633	1909	
1304	0	780	731	633	1874	
1305	0	779	731	633	1875	
1306	0	780	731	632	1904	
1307	0	781	731	634	1944	
1308	0	781	733	633	1962	
1309	0	780	730	633	1954	
1310	0	780	731	633	1946	
1311	0	779	731	633	1917	
1312	0	779	730	632	1921	
1313	0	778	731	632	1944	
1314	0	779	731	633	1980	
1315	0	777	730	633	1983	
1316	0	780	731	633	1981	
1317	0	779	730	632	1964	
1318	0	778	730	632	1942	
1319	0	780	730	632	1950	
1320	0	780	731	633	1980	
1321	0	779	731	632	1996	
1322	0	780	732	633	1985	
1323	0	780	731	633	1970	
1324	0	780	731	633	1935	
1325	0	779	731	633	1919	
1326	0	779	730	632	1929	
1327	0	781	731	631	1969	
1328	0	779	730	633	2002	
1329	0	777	731	633	2017	
1330	0	779	731	632	2025	
1331	0	780	731	632	2024	
1332	0	779	731	632	2019	
1333	0	779	731	632	2022	
1334	0	780	731	632	2028	
1335	0	778	731	633	2011	
1336	0	779	730	632	2006	
1337	0	778	731	632	1997	
1338	0	779	731	632	1983	
1339	0	780	731	633	2010	
1340	0	780	731	633	2052	
1341	0	779	730	632	2095	
1342	0	779	731	632	2125	
1343	0	780	731	632	2129	
1344	0	780	731	633	2122	
1345	0	780	731	632	2097	
1346	0	779	731	632	2076	
1347	0	779	731	632	2074	
1348	0	780	731	632	2079	
1349	0	780	731	633	2076	
1350	0	779	731	632	2074	
1351	0	779	730	631	2081	
1352	0	779	731	632	2091	
1353	0	778	731	632	2115	
1354	0	780	731	633	2152	
1355	0	779	731	633	2168	
1356	0	778	731	631	2175	
1357	0	778	731	632	2147	
1358	0	779	731	632	2111	
1359	0	779	731	632	2076	
1360	0	779	731	632	2053	
1361	0	778	731	632	2052	
1362	0	778	731	632	2071	
1363	0	779	731	632	2094	
1364	0	779	731	633	2109	
1365	0	779	731	633	2110	
1366	0	779	731	632	2120	
1367	0	780	731	632	2129	
1368	0	780	731	632	2115	
1369	0	780	731	632	2086	
1370	0	778	731	632	2065	
1371	0	778	731	632	2047	
1372	0	779	731	632	2043	
1373	0	778	731	632	2048	
1374	0	780	730	633	2080	
1375	0	780	730	633	2108	
1376	0	780	730	632	2128	
1377	0	779	730	632	2128	
1378	0	779	730	632	2126	
1379	0	779	731	632	2092	
1380	0	779	731	632	2072	
1381	0	779	730	632	2064	
1382	0	778	731	633	2052	
1383	0	780	731	633	2042	
1384	0	779	730	632	2046	
1385	0	780	731	632	2060	
1386	0	779	731	632	2076	
1387	0	778	731	632	2092	
1388	0	778	731	632	2096	
1389	0	779	731	633	2065	
1390	0	779	731	632	2031	
1391	0	780	731	633	1992	
1392	0	780	730	632	1951	
1393	0	778	730	632	1926	
1394	0	779	731	632	1929	
1395	0	779	731	633	1952	
1396	0	780	731	633	1969	
1397	0	780	731	632	1961	
1398	0	780	731	632	1947	
1399	0	779	731	632	1931	
1400	0	779	731	632	1920	
1401	0	780	731	633	1878	
1402	0	779	729	632	1812	
1403	0	779	730	633	1724	
1404	0	780	731	633	1655	
1405	0	779	730	632	1619	
1406	0	779	730	632	1604	
1407	0	779	730	632	1629	
1408	0	779	730	632	1685	
1409	0	779	730	632	1722	
1410	0	779	731	633	1763	
1411	0	778	731	632	1813	
1412	0	779	731	632	1863	
1413	0	780	731	632	1859	
1414	0	779	731	632	1871	
1415	0	780	731	632	1834	
1416	0	779	730	632	1799	
1417	0	779	730	632	1815	
1418	0	780	730	633	1877	
1419	0	781	731	633	1920	
1420	0	779	731	633	1967	
1421	0	779	731	632	2028	
1422	0	779	731	632	2075	
1423	0	780	731	632	2147	
1424	0	779	731	633	2254	
1425	0	780	732	634	2367	
1426	0	780	732	633	2438	
1427	0	781	733	633	2537	
1428	0	782	733	633	2581	
1429	0	782	732	633	2634	
1430	0	781	733	633	2692	
1431	0	781	733	633	2740	
1432	0	780	731	633	2739	
1433	0	780	731	633	2717	
1434	0	780	732	633	2678	
1435	0	780	731	632	2620	
1436	0	780	731	633	2581	
1437	0	779	731	632	2568	
1438	0	780	731	632	2554	
1439	0	779	730	632	2512	
1440	0	780	731	633	2422	
1441	0	778	730	632	2353	
1442	0	777	731	633	2323	
1443	0	778	731	633	2293	
1444	0	778	731	633	2290	
1445	0	778	731	632	2299	
1446	0	777	731	632	2282	
1447	0	778	730	632	2214	
1448	0	778	731	632	2164	
1449	0	779	731	632	2135	
1450	0	780	731	632	2124	
1451	0	781	732	632	2127	
1452	0	780	731	632	2129	
1453	0	780	731	632	2113	
1454	0	780	732	632	2091	
1455	0	780	731	632	2094	
1456	0	780	732	632	2120	
1457	0	780	731	632	2140	
1458	0	779	731	632	2161	
1459	0	781	732	632	2173	
1460	0	782	732	633	2133	
1461	0	781	731	632	2066	
1462	0	779	731	633	2046	
1463	0	781	732	633	2054	
1464	0	781	730	632	2090	
1465	0	779	731	632	2133	
1466	0	779	730	631	2164	
1467	0	778	730	632	2161	
1468	0	778	731	631	2144	
1469	0	777	730	631	2118	
1470	0	775	731	632	2117	
1471	0	775	730	632	2134	
1472	0	775	730	632	2157	
1473	0	776	730	632	2166	
1474	0	776	730	632	2156	
1475	0	776	731	632	2161	
1476	0	775	731	632	2179	
1477	0	775	731	631	2204	
1478	0	777	731	633	2228	
1479	0	778	731	632	2238	
1480	0	777	731	633	2223	
1481	0	777	731	632	2173	
1482	0	777	730	633	2114	
1483	0	779	731	632	2090	
1484	0	780	731	632	2103	
1485	0	780	731	633	2124	
1486	0	780	731	633	2161	
1487	0	781	731	633	2197	
1488	0	782	731	632	2208	
1489	0	784	731	632	2199	
1490	0	783	731	633	2200	
1491	0	783	730	632	2205	
1492	0	783	731	632	2216	
1493	0	784	731	632	2216	
1494	0	784	731	632	2215	
1495	0	783	731	632	2206	
1496	0	783	730	632	2203	
1497	0	783	730	633	2196	
1498	0	783	730	633	2191	
1499	0	782	730	632	2199	
1500	0	782	731	633	2218	
1501	0	781	730	633	2233	
1502	0	780	731	633	2244	
1503	0	780	731	633	2236	
1504	0	781	731	633	2219	
1505	0	779	731	633	2206	
1506	0	779	731	633	2200	
1507	0	778	730	633	2201	
1508	0	778	730	633	2208	
1509	0	779	730	633	2216	
1510	0	778	730	633	2227	
1511	0	776	730	633	2238	
1512	0	777	730	633	2235	
1513	0	776	730	633	2223	
1514	0	777	730	633	2233	
1515	0	776	730	634	2252	
1516	0	777	729	634	2271	
1517	0	777	730	633	2279	
1518	0	778	730	633	2286	
1519	0	778	730	634	2275	
1520	0	778	729	634	2251	
1521	0	778	729	633	2226	
1522	0	778	730	634	2212	
1523	0	779	731	633	2193	
1524	0	778	730	633	2188	
1525	0	779	729	633	2193	
1526	0	778	729	632	2201	
1527	0	778	730	634	2219	
1528	0	780	731	632	2233	
1529	0	779	730	634	2234	
1530	0	780	730	633	2217	
1531	0	780	730	633	2192	
1532	0	779	731	633	2172	
1533	0	780	731	632	2163	
1534	0	781	731	632	2174	
1535	0	781	730	633	2202	
1536	0	781	731	632	2235	
1537	0	780	732	633	2267	
1538	0	782	732	632	2286	
1539	0	782	732	633	2292	
1540	0	782	732	633	2289	
1541	0	781	731	632	2274	
1542	0	779	732	633	2259	
1543	0	781	733	633	2237	
1544	0	780	731	633	2229	
1545	0	781	732	633	2236	
1546	0	780	731	632	2246	
1547	0	778	732	633	2254	
1548	0	780	733	632	2252	
1549	0	780	731	633	2247	
1550	0	780	732	633	2239	
1551	0	780	731	631	2222	
1552	0	779	732	632	2223	
1553	0	780	733	631	2218	
1554	0	779	731	631	2217	
1555	0	780	732	632	2217	
1556	0	780	731	631	2220	
1557	0	779	731	632	2224	
1558	0	780	732	632	2199	
1559	0	779	731	631	2139	
1560	0	780	732	632	2084	
1561	0	780	731	632	2035	
1562	0	780	730	631	2016	
1563	0	779	731	631	2016	
1564	0	780	730	631	2027	
1565	0	781	731	632	2055	
1566	0	780	731	631	2075	
1567	0	779	731	632	2096	
1568	0	781	733	631	2078	
1569	0	781	731	631	2051	
1570	0	781	731	632	2021	
1571	0	780	730	631	1976	
1572	0	780	730	631	1947	
1573	0	781	730	632	1928	
1574	0	782	731	632	1939	
1575	0	780	730	632	1948	
1576	0	781	731	631	1958	
1577	0	780	732	632	1982	
1578	0	782	733	632	2005	
1579	0	781	731	632	2020	
1580	0	782	732	632	2024	
1581	0	780	731	633	2019	
1582	0	781	731	631	1987	
1583	0	781	731	632	1956	
1584	0	781	731	633	1931	
1585	0	780	730	632	1904	
1586	0	780	731	633	1896	
1587	0	780	731	631	1919	
1588	0	781	731	631	1944	
1589	0	781	732	633	1940	
1590	0	780	730	632	1939	
1591	0	781	731	633	1954	
1592	0	781	731	632	1963	
1593	0	780	731	633	1950	
1594	0	780	731	632	1948	
1595	0	779	730	633	1946	
1596	0	780	731	632	1932	
1597	0	780	730	632	1931	
1598	0	779	730	632	1939	
1599	0	779	730	632	1944	
1600	0	778	730	632	1949	
1601	0	779	730	632	1967	
1602	0	779	731	632	1965	
1603	0	779	731	632	1930	
1604	0	779	730	633	1904	
1605	0	778	730	633	1887	
1606	0	778	730	633	1873	
1607	0	779	731	632	1887	
1608	0	779	731	632	1913	
1609	0	779	730	632	1925	
1610	0	779	730	632	1939	
1611	0	779	730	632	1932	
1612	0	779	730	631	1895	
1613	0	779	730	631	1868	
1614	0	780	729	632	1869	
1615	0	780	730	632	1878	
1616	0	780	730	632	1891	
1617	0	780	730	632	1893	
1618	0	780	730	632	1896	
1619	0	780	731	632	1906	
1620	0	780	730	633	1927	
1621	0	780	729	632	1918	
1622	0	780	730	632	1907	
1623	0	780	730	631	1879	
1624	0	782	729	632	1835	
1625	0	780	729	632	1809	
1626	0	781	731	632	1818	
1627	0	780	730	632	1811	
1628	0	780	730	632	1827	
1629	0	780	731	632	1835	
1630	0	778	730	632	1830	
1631	0	779	730	632	1859	
1632	0	778	731	633	1900	
1633	0	780	732	633	1920	
1634	0	779	730	633	1943	
1635	0	780	731	632	1944	
1636	0	779	730	632	1914	
1637	0	779	731	632	1914	
1638	0	780	731	632	1934	
1639	0	780	731	633	1933	
1640	0	779	730	632	1888	
1641	0	780	731	633	1821	
1642	0	778	730	632	1782	
1643	0	778	730	632	1804	
1644	0	779	729	633	1854	
1645	0	778	730	633	1908	
1646	0	778	731	633	1942	
1647	0	779	731	632	1955	
1648	0	779	731	632	1955	
1649	0	780	731	632	1959	
1650	0	778	731	633	1959	
1651	0	778	731	632	1901	
1652	0	780	731	632	1823	
1653	0	780	731	632	1777	
1654	0	780	730	632	1796	
1655	0	779	730	633	1837	
1656	0	779	731	633	1866	
1657	0	778	731	633	1899	
1658	0	778	731	633	1933	
1659	0	779	731	632	1953	
1660	0	778	731	633	1947	
1661	0	780	730	633	1875	
1662	0	778	731	633	1840	
1663	0	778	731	632	1807	
1664	0	779	731	632	1826	
1665	0	778	730	633	1816	
1666	0	779	731	633	1810	
1667	0	778	731	632	1821	
1668	0	778	731	633	1838	
1669	0	779	731	633	1869	
1670	0	778	731	633	1855	
1671	0	779	732	633	1857	
1672	0	778	731	632	1850	
1673	0	778	731	632	1860	
1674	0	778	732	632	1820	
1675	0	778	732	632	1775	
1676	0	777	732	631	1763	
1677	0	778	733	633	1799	
1678	0	778	732	635	1811	
1679	0	778	732	633	1835	
1680	0	779	731	634	1870	
1681	0	778	731	633	1911	
1682	0	779	731	634	1910	
1683	0	778	731	632	1886	
1684	0	778	732	633	1888	
1685	0	779	731	634	1887	
1686	0	778	731	633	1834	
1687	0	778	731	633	1778	
1688	0	779	731	632	1781	
1689	0	779	732	633	1817	
1690	0	778	730	633	1844	
1691	0	780	731	633	1878	
1692	0	780	731	632	1924	
1693	0	780	731	632	1944	
1694	0	780	732	632	1923	
1695	0	779	732	632	1898	
1696	0	779	731	632	1903	
1697	0	779	731	632	1896	
1698	0	779	731	632	1886	
1699	0	779	731	632	1886	
1700	0	780	732	633	1918	
1701	0	779	731	632	1937	
1702	0	779	731	633	1926	
1703	0	778	731	632	1903	
1704	0	780	732	633	1911	
1705	0	780	731	633	1932	
1706	0	779	730	632	1935	
1707	0	780	731	633	1924	
1708	0	780	731	631	1936	
1709	0	780	732	632	1959	
1710	0	781	731	632	1949	
1711	0	780	731	632	1924	
1712	0	780	731	633	1944	
1713	0	780	731	632	1976	
1714	0	779	732	632	1976	
1715	0	780	731	632	1963	
1716	0	779	730	632	1985	
1717	0	778	731	633	2028	
1718	0	779	731	632	2046	
1719	0	779	732	633	2019	
1720	0	778	730	632	1995	
1721	0	779	731	632	2008	
1722	0	779	731	633	2002	
1723	0	780	731	632	1947	
1724	0	779	731	633	1928	
1725	0	780	731	633	1961	
1726	0	779	730	632	2001	
1727	0	779	731	633	2031	
1728	0	780	731	631	2031	
1729	0	780	731	632	2038	
1730	0	781	731	632	2058	
1731	0	779	731	632	2070	
1732	0	779	731	631	2047	
1733	0	780	730	631	2001	
1734	0	779	731	632	1998	
1735	0	780	731	632	2033	
1736	0	780	731	632	2069	
1737	0	779	731	633	2088	
1738	0	780	732	631	2113	
1739	0	779	731	632	2144	
1740	0	779	730	632	2160	
1741	0	780	731	631	2153	
1742	0	780	732	632	2107	
1743	0	781	731	631	2028	
1744	0	780	731	631	2018	
1745	0	779	731	632	2055	
1746	0	780	732	632	2097	
1747	0	779	731	632	2117	
1748	0	780	731	631	2106	
1749	0	780	731	632	2118	
1750	0	779	730	632	2143	
1751	0	780	731	632	2151	
1752	0	780	731	631	2145	
1753	0	780	731	631	2119	
1754	0	780	732	631	2105	
1755	0	779	730	632	2125	
1756	0	780	731	632	2146	
1757	0	780	731	631	2151	
1758	0	780	731	631	2164	
1759	0	780	732	631	2175	
1760	0	779	731	632	2184	
1761	0	779	731	631	2213	
1762	0	779	731	631	2224	
1763	0	780	731	631	2189	
1764	0	781	732	631	2165	
1765	0	780	732	632	2140	
1766	0	781	731	631	2102	
1767	0	780	731	631	2110	
1768	0	781	730	632	2133	
1769	0	781	731	632	2129	
1770	0	780	730	632	2117	
1771	0	780	731	632	2125	
1772	0	779	730	632	2143	
1773	0	779	730	632	2148	
1774	0	779	732	632	2181	
1775	0	777	730	632	2214	
1776	0	779	730	633	2204	
1777	0	778	730	632	2179	
1778	0	778	730	633	2184	
1779	0	779	731	633	2200	
1780	0	779	731	633	2199	
1781	0	779	731	632	2208	
1782	0	780	731	632	2223	
1783	0	781	731	631	2222	
1784	0	782	732	632	2195	
1785	0	781	732	631	2167	
1786	0	783	732	632	2158	
1787	0	782	732	631	2151	
1788	0	783	731	631	2147	
1789	0	783	732	632	2148	
1790	0	781	731	632	2149	
1791	0	781	732	633	2141	
1792	0	781	730	632	2129	
1793	0	780	731	632	2120	
1794	0	779	731	633	2105	
1795	0	778	731	632	2085	
1796	0	779	732	632	2083	
1797	0	779	731	632	2087	
1798	0	780	731	632	2114	
1799	0	780	732	632	2131	
1800	0	781	732	633	2146	
1801	0	780	732	633	2152	
1802	0	779	732	633	2143	
1803	0	779	732	631	2119	
1804	0	779	731	633	2095	
1805	0	778	731	632	2091	
1806	0	778	731	632	2096	
1807	0	778	731	632	2109	
1808	0	778	731	632	2120	
1809	0	778	731	632	2140	
1810	0	776	730	632	2156	
1811	0	778	730	632	2153	
1812	0	778	730	633	2149	
1813	0	778	732	635	2136	
1814	0	777	730	632	2128	
1815	0	777	730	633	2120	
1816	0	777	730	632	2117	
1817	0	778	730	632	2118	
1818	0	779	731	632	2144	
1819	0	780	731	633	2160	
1820	0	780	730	632	2156	
1821	0	780	731	632	2149	
1822	0	780	730	633	2151	
1823	0	781	731	633	2150	
1824	0	781	730	633	2147	
1825	0	780	730	633	2137	
1826	0	780	730	632	2130	
1827	0	780	730	632	2145	
1828	0	780	731	632	2160	
1829	0	780	730	632	2172	
1830	0	780	731	633	2183	
1831	0	780	730	633	2196	
1832	0	781	730	632	2201	
1833	0	780	731	632	2191	
1834	0	780	731	632	2185	
1835	0	780	731	632	2186	
1836	0	780	731	632	2193	
1837	0	780	731	632	2207	
1838	0	780	732	635	2219	
1839	0	779	731	632	2219	
1840	0	779	732	632	2206	
1841	0	780	732	633	2191	
1842	0	780	731	632	2172	
1843	0	779	732	632	2154	
1844	0	780	731	632	2145	
1845	0	780	732	632	2144	
1846	0	781	732	633	2161	
1847	0	781	731	632	2178	
1848	0	779	732	632	2195	
1849	0	781	731	632	2208	
1850	0	781	732	633	2214	
1851	0	780	731	632	2205	
1852	0	780	731	632	2187	
1853	0	781	732	630	2145	
1854	0	780	732	632	2109	
1855	0	781	732	632	2093	
1856	0	779	731	632	2082	
1857	0	780	730	632	2097	
1858	0	780	732	632	2131	
1859	0	780	732	632	2163	
1860	0	780	731	633	2179	
1861	0	780	732	632	2182	
1862	0	780	732	632	2190	
1863	0	780	732	632	2182	
1864	0	780	731	632	2162	
1865	0	780	732	632	2122	
1866	0	780	731	632	2088	
1867	0	780	731	632	2094	
1868	0	779	732	632	2110	
1869	0	780	733	632	2129	
1870	0	780	732	632	2136	
1871	0	781	732	632	2152	
1872	0	780	731	632	2167	
1873	0	780	732	632	2163	
1874	0	780	732	632	2148	
1875	0	780	732	632	2127	
1876	0	780	732	632	2110	
1877	0	779	731	632	2067	
1878	0	779	732	631	2032	
1879	0	780	732	632	1998	
1880	0	779	731	632	1987	
1881	0	780	731	632	2022	
1882	0	780	731	632	2075	
1883	0	779	732	632	2114	
1884	0	781	732	631	2138	
1885	0	780	732	633	2148	
1886	0	779	731	632	2134	
1887	0	778	731	632	2102	
1888	0	779	731	632	2060	
1889	0	780	731	633	2031	
1890	0	780	731	632	2019	
1891	0	781	732	632	2032	
1892	0	781	731	631	2057	
1893	0	780	732	631	2073	
1894	0	780	731	630	2090	
1895	0	781	732	632	2118	
1896	0	780	731	631	2153	
1897	0	780	730	632	2181	
1898	0	780	732	632	2183	
1899	0	780	732	631	2162	
1900	0	780	732	632	2127	
1901	0	779	731	632	2104	
1902	0	779	731	631	2103	
1903	0	779	731	631	2098	
1904	0	780	732	632	2099	
1905	0	780	731	631	2102	
1906	0	781	732	632	2122	
1907	0	781	731	632	2142	
1908	0	780	732	632	2151	
1909	0	781	732	631	2145	
1910	0	780	732	632	2137	
1911	0	780	731	632	2133	
1912	0	779	732	632	2144	
1913	0	779	732	632	2148	
1914	0	780	733	631	2138	
1915	0	779	731	632	2140	
1916	0	779	731	632	2141	
1917	0	779	732	632	2159	
1918	0	779	732	631	2184	
1919	0	779	733	631	2195	
1920	0	780	731	632	2191	
1921	0	779	732	632	2188	
1922	0	780	731	632	2186	
1923	0	780	732	632	2187	
1924	0	781	734	632	2190	
1925	0	780	732	632	2189	
1926	0	781	732	632	2189	
1927	0	780	731	632	2190	
1928	0	779	732	632	2193	
1929	0	780	733	632	2207	
1930	0	780	731	632	2217	
1931	0	780	731	632	2214	
1932	0	780	731	632	2201	
1933	0	779	732	632	2179	
1934	0	780	732	631	2167	
1935	0	781	732	632	2172	
1936	0	780	731	631	2175	
1937	0	781	731	632	2181	
1938	0	781	732	632	2185	
1939	0	781	732	631	2195	
1940	0	781	732	632	2209	
1941	0	780	731	632	2224	
1942	0	780	731	632	2236	
1943	0	781	732	633	2233	
1944	0	781	732	632	2230	
1945	0	781	732	633	2227	
1946	0	780	731	632	2220	
1947	0	781	730	633	2224	
1948	0	781	732	633	2211	
1949	0	781	731	632	2194	
1950	0	782	732	633	2182	
1951	0	781	731	632	2179	
1952	0	781	730	633	2190	
1953	0	781	732	632	2198	
1954	0	781	732	632	2215	
1955	0	780	732	633	2228	
1956	0	780	731	632	2237	
1957	0	780	730	633	2247	
1958	0	781	732	633	2260	
1959	0	780	731	632	2260	
1960	0	781	732	633	2248	
1961	0	780	731	633	2220	
1962	0	781	730	633	2212	
1963	0	781	732	633	2211	
1964	0	780	732	631	2227	
1965	0	779	731	633	2240	
1966	0	780	731	632	2250	
1967	0	780	730	633	2251	
1968	0	780	731	635	2240	
1969	0	780	731	633	2236	
1970	0	780	731	633	2245	
1971	0	779	731	632	2260	
1972	0	779	730	633	2273	
1973	0	780	731	633	2268	
1974	0	780	731	631	2265	
1975	0	779	731	632	2261	
1976	0	780	731	633	2258	
1977	0	780	730	632	2246	
1978	0	779	731	632	2233	
1979	0	780	733	633	2198	
1980	0	779	732	633	2172	
1981	0	781	732	633	2178	
1982	0	780	731	632	2197	
1983	0	780	731	632	2224	
1984	0	781	732	633	2251	
1985	0	780	732	632	2259	
1986	0	781	733	633	2261	
1987	0	780	731	632	2254	
1988	0	780	732	632	2236	
1989	0	780	732	631	2210	
1990	0	780	732	632	2183	
1991	0	779	732	632	2157	
1992	0	779	731	632	2145	
1993	0	780	733	634	2148	
1994	0	780	732	632	2167	
1995	0	781	733	633	2192	
1996	0	780	732	632	2207	
1997	0	780	731	633	2219	
1998	0	780	733	634	2228	
1999	0	780	732	632	2235	
2000	0	781	733	633	2238	
2001	0	780	732	632	2234	
2002	0	779	732	633	2209	
2003	0	780	733	632	2169	
2004	0	780	733	631	2141	
2005	0	781	733	632	2142	
2006	0	780	732	632	2150	
2007	0	780	731	633	2168	
2008	0	780	732	633	2187	
2009	0	779	731	631	2208	
2010	0	780	731	631	2221	
2011	0	780	733	632	2235	
2012	0	781	732	631	2241	
2013	0	780	732	631	2237	
2014	0	780	732	631	2231	
2015	0	780	732	632	2225	
2016	0	780	732	632	2206	
2017	0	779	731	632	2187	
2018	0	780	732	632	2198	
2019	0	780	732	631	2218	
2020	0	780	733	632	2244	
2021	0	780	731	632	2259	
2022	0	780	732	632	2264	
2023	0	781	732	631	2255	
2024	0	780	733	631	2239	
2025	0	780	731	631	2228	
2026	0	780	732	632	2220	
2027	0	780	732	632	2217	
2028	0	780	732	632	2201	
2029	0	780	733	632	2196	
2030	0	780	732	632	2197	
2031	0	780	732	632	2204	
2032	0	778	731	633	2215	
2033	0	781	732	632	2217	
2034	0	781	733	633	2224	
2035	0	780	731	632	2233	
2036	0	780	732	631	2244	
2037	0	779	731	632	2256	
2038	0	781	732	632	2271	
2039	0	780	733	631	2281	
2040	0	780	731	632	2280	
2041	0	779	732	631	2267	
2042	0	779	732	632	2247	
2043	0	781	732	632	2217	
2044	0	781	733	633	2201	
2045	0	781	732	632	2201	
2046	0	780	732	632	2204	
2047	0	779	731	633	2214	
2048	0	781	731	632	2217	
2049	0	780	732	632	2221	
2050	0	780	730	633	2220	
2051	0	780	731	632	2211	
2052	0	781	732	632	2204	
2053	0	781	733	632	2190	
2054	0	781	732	632	2183	
2055	0	780	731	632	2184	
2056	0	780	732	631	2187	
2057	0	781	731	632	2197	
2058	0	781	732	632	2218	
2059	0	782	733	632	2237	
2060	0	781	732	632	2252	
2061	0	780	732	632	2259	
2062	0	781	732	632	2257	
2063	0	780	732	632	2247	
2064	0	780	733	632	2237	
2065	0	780	731	633	2232	
2066	0	780	732	632	2237	
2067	0	781	732	632	2246	
2068	0	780	732	632	2247	
2069	0	780	732	632	2250	
2070	0	781	732	633	2255	
2071	0	779	731	632	2258	
2072	0	778	731	633	2266	
2073	0	779	732	635	2263	
2074	0	780	732	632	2258	
2075	0	779	731	633	2254	
2076	0	780	732	633	2254	
2077	0	781	730	632	2246	
2078	0	780	732	632	2246	
2079	0	779	732	632	2233	
2080	0	780	732	633	2217	
2081	0	779	732	631	2201	
2082	0	779	732	632	2196	
2083	0	780	732	631	2193	
2084	0	779	732	630	2201	
2085	0	780	732	632	2218	
2086	0	780	731	632	2231	
2087	0	780	732	632	2242	
2088	0	780	732	635	2235	
2089	0	781	733	632	2226	
2090	0	780	731	633	2225	
2091	0	781	732	632	2230	
2092	0	779	732	632	2226	
2093	0	781	732	631	2216	
2094	0	781	731	633	2212	
2095	0	780	730	632	2208	
2096	0	781	732	633	2209	
2097	0	779	731	632	2212	
2098	0	781	731	632	2220	
2099	0	781	732	632	2217	
2100	0	780	731	632	2202	
2101	0	781	732	632	2186	
2102	0	779	732	632	2167	
2103	0	780	731	632	2156	
2104	0	781	733	631	2157	
2105	0	780	731	632	2173	
2106	0	781	732	633	2190	
2107	0	780	732	632	2201	
2108	0	780	731	632	2200	
2109	0	780	731	633	2188	
2110	0	780	731	633	2176	
2111	0	780	731	632	2171	
2112	0	780	731	633	2171	
2113	0	781	732	633	2150	
2114	0	781	731	632	2141	
2115	0	780	731	632	2142	
2116	0	781	732	632	2155	
2117	0	780	732	632	2169	
2118	0	780	732	632	2185	
2119	0	780	732	632	2193	
2120	0	780	731	632	2179	
2121	0	781	731	632	2161	
2122	0	780	732	632	2137	
2123	0	780	732	631	2083	
2124	0	781	731	632	2031	
2125	0	780	730	632	2006	
2126	0	779	732	632	2015	
2127	0	780	731	632	2056	
2128	0	780	731	632	2097	
2129	0	781	732	632	2132	
2130	0	780	731	632	2155	
2131	0	781	731	632	2169	
2132	0	781	731	632	2171	
2133	0	780	731	632	2123	
2134	0	780	731	632	2033	
2135	0	780	731	632	1931	
2136	0	780	730	632	1873	
2137	0	781	731	632	1878	
2138	0	781	731	632	1926	
2139	0	782	732	632	1982	
2140	0	780	731	631	2027	
2141	0	779	732	632	2060	
2142	0	780	731	632	2081	
2143	0	780	732	632	2067	
2144	0	781	732	632	2033	
2145	0	780	731	631	1984	
2146	0	781	732	632	1924	
2147	0	780	732	631	1876	
2148	0	781	731	632	1882	
2149	0	781	732	633	1921	
2150	0	781	732	633	1961	
2151	0	780	731	632	1999	
2152	0	780	732	633	2038	
2153	0	782	732	634	2054	
2154	0	781	731	632	2064	
2155	0	781	732	632	2032	
2156	0	780	731	632	1979	
2157	0	779	731	632	1932	
2158	0	780	732	633	1918	
2159	0	781	732	632	1903	
2160	0	781	732	632	1888	
2161	0	780	731	631	1911	
2162	0	780	731	632	1963	
2163	0	780	732	632	2010	
2164	0	781	732	632	2050	
2165	0	781	731	631	2070	
2166	0	781	731	632	2077	
2167	0	780	731	633	2077	
2168	0	780	732	632	2060	
2169	0	780	732	631	2026	
2170	0	780	731	631	1985	
2171	0	780	731	632	1966	
2172	0	780	731	632	1969	
2173	0	780	731	632	1978	
2174	0	781	731	632	1990	
2175	0	781	731	631	2005	
2176	0	781	731	632	2023	
2177	0	781	731	632	2035	
2178	0	781	731	632	2051	
2179	0	781	732	632	2035	
2180	0	780	731	632	2016	
2181	0	780	731	632	2001	
2182	0	780	731	632	2003	
2183	0	780	732	632	2004	
2184	0	780	732	632	1992	
2185	0	779	731	632	2006	
2186	0	779	732	632	2019	
2187	0	779	731	633	2040	
2188	0	779	731	633	2041	
2189	0	779	731	633	2018	
2190	0	778	730	632	1981	
2191	0	778	731	632	1959	
2192	0	779	731	632	1969	
2193	0	779	732	632	1977	
2194	0	780	732	634	1981	
2195	0	780	732	634	1997	
2196	0	779	731	632	2002	
2197	0	779	731	632	2001	
2198	0	779	731	632	1978	
2199	0	779	732	632	1966	
2200	0	778	731	631	1923	
2201	0	780	732	632	1875	
2202	0	778	732	631	1865	
2203	0	780	731	632	1866	
2204	0	780	732	632	1859	
2205	0	779	730	632	1854	
2206	0	779	731	632	1867	
2207	0	778	732	633	1907	
2208	0	779	732	633	1924	
2209	0	779	731	634	1960	
2210	0	780	732	634	1987	
2211	0	780	731	633	1982	
2212	0	779	731	633	1951	
2213	0	780	732	634	1893	
2214	0	779	731	632	1859	
2215	0	780	732	632	1803	
2216	0	780	731	632	1812	
2217	0	780	731	633	1843	
2218	0	781	732	633	1882	
2219	0	780	732	634	1901	
2220	0	780	731	634	1893	
2221	0	779	731	633	1907	
2222	0	779	731	632	1912	
2223	0	780	732	632	1920	
2224	0	780	732	632	1920	
2225	0	780	730	632	1901	
2226	0	782	732	632	1870	
2227	0	780	732	632	1813	
2228	0	781	732	632	1798	
2229	0	780	732	632	1777	
2230	0	779	731	631	1796	
2231	0	780	730	632	1825	
2232	0	779	731	633	1861	
2233	0	778	731	632	1859	
2234	0	779	731	632	1853	
2235	0	780	731	632	1869	
2236	0	780	731	632	1863	
2237	0	780	731	632	1869	
2238	0	780	731	632	1876	
2239	0	780	732	632	1870	
2240	0	780	731	631	1810	
2241	0	780	731	632	1771	
2242	0	780	731	632	1738	
2243	0	780	731	632	1726	
2244	0	781	731	632	1759	
2245	0	780	731	631	1800	
2246	0	780	731	632	1836	
2247	0	780	731	632	1802	
2248	0	780	731	631	1796	
2249	0	780	732	631	1775	
2250	0	780	731	631	1783	
2251	0	780	731	632	1802	
2252	0	780	732	632	1817	
2253	0	780	732	632	1812	
2254	0	780	732	632	1780	
2255	0	780	731	632	1803	
2256	0	780	731	632	1807	
2257	0	780	731	632	1836	
2258	0	779	732	632	1875	
2259	0	779	732	632	1892	
2260	0	779	730	631	1865	
2261	0	779	731	631	1796	
2262	0	779	732	632	1766	
2263	0	779	731	632	1729	
2264	0	780	732	632	1736	
2265	0	779	732	631	1763	
2266	0	781	732	633	1787	
2267	0	780	731	632	1787	
2268	0	779	731	631	1759	
2269	0	781	732	632	1753	
2270	0	780	730	631	1732	
2271	0	781	731	633	1749	
2272	0	781	731	632	1778	
2273	0	782	731	632	1783	
2274	0	782	731	633	1778	
2275	0	781	730	631	1761	
2276	0	781	732	633	1784	
2277	0	782	731	632	1790	
2278	0	780	732	632	1831	
2279	0	780	732	633	1861	
2280	0	781	732	633	1873	
2281	0	780	731	632	1861	
2282	0	780	731	632	1832	
2283	0	779	731	631	1816	
2284	0	781	732	632	1778	
2285	0	780	731	631	1785	
2286	0	780	731	632	1806	
2287	0	781	731	631	1816	
2288	0	779	731	631	1813	
2289	0	780	732	632	1794	
2290	0	780	730	631	1803	
2291	0	780	731	633	1797	
2292	0	780	731	632	1820	
2293	0	780	732	631	1837	
2294	0	780	731	633	1844	
2295	0	781	731	633	1833	
2296	0	781	731	632	1799	
2297	0	781	731	632	1812	
2298	0	779	731	632	1825	
2299	0	780	731	633	1848	
2300	0	780	731	632	1862	
2301	0	781	731	632	1879	
2302	0	781	731	632	1870	
2303	0	780	731	632	1839	
2304	0	779	731	632	1832	
2305	0	779	731	631	1823	
2306	0	780	731	632	1842	
2307	0	779	731	631	1876	
2308	0	779	732	631	1903	
2309	0	780	732	630	1916	
2310	0	780	731	632	1913	
2311	0	780	731	632	1902	
2312	0	781	731	632	1902	
2313	0	780	731	633	1893	
2314	0	781	731	632	1907	
2315	0	780	730	632	1916	
2316	0	781	731	632	1919	
2317	0	780	731	632	1913	
2318	0	781	731	632	1891	
2319	0	780	731	629	1925	
2320	0	780	731	632	1939	
2321	0	781	731	632	1974	
2322	0	781	731	632	1996	
2323	0	780	732	633	2008	
2324	0	780	731	633	1998	
2325	0	781	731	633	1932	
2326	0	779	731	632	1909	
2327	0	780	731	632	1877	
2328	0	780	731	633	1867	
2329	0	780	731	632	1876	
2330	0	780	731	632	1905	
2331	0	780	731	632	1924	
2332	0	779	731	632	1937	
2333	0	779	731	632	1949	
2334	0	779	731	633	1976	
2335	0	779	731	632	1986	
2336	0	780	731	632	1985	
2337	0	780	731	632	1984	
2338	0	779	730	632	1980	
2339	0	780	732	633	1956	
2340	0	779	731	632	1880	
2341	0	779	731	632	1880	
2342	0	779	731	632	1884	
2343	0	779	731	632	1920	
2344	0	780	732	633	1951	
2345	0	780	732	632	1975	
2346	0	780	731	632	1971	
2347	0	780	731	632	1932	
2348	0	780	731	631	1925	
2349	0	780	731	632	1896	
2350	0	780	732	632	1891	
2351	0	779	731	631	1892	
2352	0	780	731	631	1913	
2353	0	779	731	631	1924	
2354	0	780	732	632	1923	
2355	0	779	731	632	1907	
2356	0	779	731	631	1899	
2357	0	779	731	631	1878	
2358	0	779	731	631	1894	
2359	0	779	732	632	1904	
2360	0	778	731	632	1883	
2361	0	779	732	632	1838	
2362	0	779	731	632	1775	
2363	0	779	731	631	1769	
2364	0	779	732	632	1743	
2365	0	779	732	632	1726	
2366	0	779	732	632	1691	
2367	0	779	731	632	1661	
2368	0	780	731	632	1623	
2369	0	780	732	632	1558	
2370	0	779	731	632	1522	
2371	0	779	731	632	1490	
2372	0	779	731	632	1489	
2373	0	779	731	631	1514	
2374	0	780	732	632	1565	
2375	0	779	731	632	1622	
2376	0	779	731	632	1664	
2377	0	779	731	632	1674	
2378	0	779	730	632	1708	
2379	0	779	731	633	1695	
2380	0	780	732	632	1705	
2381	0	780	731	632	1712	
2382	0	780	732	632	1729	
2383	0	781	732	632	1743	
2384	0	781	731	633	1725	
2385	0	781	732	633	1771	
2386	0	780	731	632	1810	
2387	0	780	731	633	1886	
2388	0	781	732	635	1963	
2389	0	781	732	634	2050	
2390	0	782	732	634	2134	
2391	0	781	732	633	2196	
2392	0	781	733	632	2287	
2393	0	781	733	633	2368	
2394	0	781	733	634	2451	
2395	0	783	733	633	2542	
2396	0	782	733	633	2609	
2397	0	782	733	633	2644	
2398	0	782	733	633	2659	
2399	0	782	732	633	2623	
2400	0	782	732	633	2599	
2401	0	781	731	632	2544	
2402	0	781	732	631	2509	
2403	0	781	732	632	2471	
2404	0	781	731	633	2436	
2405	0	780	731	632	2396	
2406	0	780	732	632	2309	
2407	0	783	731	632	2274	
2408	0	780	731	632	2233	
2409	0	780	732	631	2212	
2410	0	779	731	632	2199	
2411	0	780	732	633	2186	
2412	0	782	732	631	2156	
2413	0	778	732	631	2096	
2414	0	780	733	632	2062	
2415	0	779	732	631	2027	
2416	0	780	732	632	2000	
2417	0	782	732	631	1977	
2418	0	779	731	632	1974	
2419	0	780	732	632	1963	
2420	0	780	732	632	1941	
2421	0	779	732	631	1923	
2422	0	780	732	630	1951	
2423	0	781	732	632	1965	
2424	0	780	732	632	1985	
2425	0	781	732	632	1999	
2426	0	780	731	632	1989	
2427	0	780	732	631	1977	
2428	0	781	731	632	1925	
2429	0	779	731	633	1922	
2430	0	779	731	632	1909	
2431	0	779	732	632	1920	
2432	0	780	731	632	1936	
2433	0	776	731	632	1950	
2434	0	776	732	632	1965	
2435	0	775	732	632	1972	
2436	0	775	732	632	1983	
2437	0	774	732	631	1981	
2438	0	775	733	632	1981	
2439	0	776	732	632	1966	
2440	0	776	732	633	1958	
2441	0	776	731	633	1928	
2442	0	776	732	632	1908	
2443	0	777	731	633	1880	
2444	0	779	732	633	1908	
2445	0	779	732	633	1931	
2446	0	780	732	634	1963	
2447	0	782	732	632	1984	
2448	0	779	731	633	1998	
2449	0	782	731	633	1995	
2450	0	781	731	633	1957	
2451	0	782	732	633	1940	
2452	0	781	730	633	1915	
2453	0	782	731	633	1902	
2454	0	783	732	633	1917	
2455	0	782	731	632	1941	
2456	0	783	731	632	1967	
2457	0	784	731	632	1981	
2458	0	784	731	633	1981	
2459	0	784	731	634	1999	
2460	0	783	731	632	1974	
2461	0	783	731	632	1960	
2462	0	782	731	632	1943	
2463	0	781	730	633	1936	
2464	0	781	731	633	1924	
2465	0	780	730	633	1905	
2466	0	780	731	633	1913	
2467	0	779	731	632	1935	
2468	0	779	731	633	1955	
2469	0	779	732	634	1975	
2470	0	779	731	633	1990	
2471	0	779	731	632	1989	
2472	0	780	732	632	1961	
2473	0	779	732	632	1896	
2474	0	780	732	633	1903	
2475	0	779	732	632	1906	
2476	0	778	732	632	1939	
2477	0	779	732	633	1968	
2478	0	777	731	633	1993	
2479	0	777	732	633	1989	
2480	0	778	732	633	1950	
2481	0	777	730	633	1910	
2482	0	778	731	632	1902	
2483	0	778	730	633	1886	
2484	0	778	731	634	1900	
2485	0	777	730	633	1929	
2486	0	778	731	633	1945	
2487	0	781	729	633	1938	
2488	0	780	730	633	1915	
2489	0	779	730	634	1935	
2490	0	779	730	632	1939	
2491	0	780	731	633	1955	
2492	0	781	730	631	1980	
2493	0	779	730	632	2006	
2494	0	779	731	632	1996	
2495	0	779	730	632	1972	
2496	0	779	731	632	1938	
2497	0	782	730	632	1932	
2498	0	781	730	632	1932	
2499	0	780	731	633	1935	
2500	0	780	731	632	1934	
2501	0	780	731	633	1926	
2502	0	782	731	632	1912	
2503	0	780	731	632	1884	
2504	0	780	732	633	1893	
2505	0	779	731	632	1905	
2506	0	779	731	632	1914	
2507	0	779	732	631	1935	
2508	0	780	733	633	1956	
2509	0	780	732	632	1961	
2510	0	780	732	631	1964	
2511	0	780	734	631	1943	
2512	0	780	732	631	1952	
2513	0	780	732	632	1934	
2514	0	780	732	632	1956	
2515	0	780	732	632	1980	
2516	0	779	732	632	1998	
2517	0	779	731	632	1982	
2518	0	779	731	632	1971	
2519	0	778	732	633	1966	
2520	0	779	732	632	1962	
2521	0	780	731	631	1935	
2522	0	780	731	631	1921	
2523	0	779	731	631	1918	
2524	0	779	732	633	1927	
2525	0	779	731	631	1930	
2526	0	779	732	631	1906	
2527	0	778	732	631	1930	
2528	0	779	732	632	1933	
2529	0	779	732	633	1964	
2530	0	780	732	632	1996	
2531	0	780	731	632	2007	
2532	0	781	731	632	1980	
2533	0	780	730	633	1934	
2534	0	780	731	633	1876	
2535	0	780	731	632	1903	
2536	0	780	731	632	1926	
2537	0	780	731	632	1953	
2538	0	780	731	633	1982	
2539	0	780	731	633	1997	
2540	0	781	731	632	1987	
2541	0	780	731	632	1915	
2542	0	780	731	632	1883	
2543	0	779	731	632	1873	
2544	0	779	731	633	1885	
2545	0	780	731	632	1897	
2546	0	781	732	633	1926	
2547	0	782	731	631	1947	
2548	0	781	732	632	1947	
2549	0	780	732	633	1933	
2550	0	781	732	632	1949	
2551	0	781	731	632	1937	
2552	0	780	731	632	1948	
2553	0	780	731	633	1960	
2554	0	780	731	634	1973	
2555	0	779	731	633	1960	
2556	0	780	732	632	1950	
2557	0	780	733	632	1955	
2558	0	779	733	633	1995	
2559	0	779	733	633	2023	
2560	0	780	732	632	2022	
2561	0	779	732	632	2001	
2562	0	779	733	632	1963	
2563	0	777	732	632	1907	
2564	0	778	732	633	1850	
2565	0	778	731	632	1864	
2566	0	778	732	632	1889	
2567	0	778	732	632	1927	
2568	0	778	732	633	1964	
2569	0	778	732	633	1987	
2570	0	780	731	633	1991	
2571	0	780	732	632	1973	
2572	0	780	730	632	1924	
2573	0	778	731	632	1909	
2574	0	779	731	632	1889	
2575	0	780	731	633	1904	
2576	0	780	731	633	1936	
2577	0	779	730	632	1971	
2578	0	779	731	632	2003	
2579	0	780	731	633	1990	
2580	0	780	731	632	1983	
2581	0	779	731	632	1946	
2582	0	779	730	632	1924	
2583	0	780	731	632	1905	
2584	0	780	731	632	1904	
2585	0	781	731	632	1899	
2586	0	779	730	632	1879	
2587	0	780	730	632	1864	
2588	0	780	731	633	1893	
2589	0	778	731	633	1921	
2590	0	779	731	632	1962	
2591	0	779	731	632	1983	
2592	0	780	731	632	1984	
2593	0	780	732	632	1962	
2594	0	779	731	632	1892	
2595	0	780	732	632	1875	
2596	0	779	731	632	1869	
2597	0	779	731	632	1897	
2598	0	780	731	632	1933	
2599	0	779	731	632	1954	
2600	0	780	731	632	1971	
2601	0	779	730	632	1970	
2602	0	780	732	632	1950	
2603	0	780	731	633	1953	
2604	0	780	731	633	1925	
2605	0	780	731	632	1915	
2606	0	780	732	633	1921	
2607	0	781	731	633	1939	
2608	0	778	731	632	1955	
2609	0	779	731	632	1950	
2610	0	780	731	633	1965	
2611	0	778	731	632	1959	
2612	0	779	731	630	1971	
2613	0	779	732	632	1969	
2614	0	779	731	632	1977	
2615	0	779	732	632	1977	
2616	0	779	731	632	1934	
2617	0	779	730	632	1899	
2618	0	779	731	635	1909	
2619	0	778	731	632	1919	
2620	0	780	731	633	1941	
2621	0	779	731	632	1966	
2622	0	779	732	632	1977	
2623	0	777	731	632	1957	
2624	0	779	731	633	1933	
2625	0	781	732	633	1945	
2626	0	780	731	632	1932	
2627	0	780	731	632	1944	
2628	0	780	732	633	1938	
2629	0	779	732	633	1927	
2630	0	780	732	633	1919	
2631	0	779	732	633	1910	
2632	0	780	731	632	1931	
2633	0	781	732	633	1929	
2634	0	780	732	633	1951	
2635	0	781	732	632	1976	
2636	0	780	732	633	1987	
2637	0	779	731	632	1984	
2638	0	778	732	632	1993	
2639	0	779	732	633	2002	
2640	0	779	731	632	1989	
2641	0	780	732	633	1976	
2642	0	780	731	632	1976	
2643	0	778	732	632	1962	
2644	0	778	732	632	1942	
2645	0	779	732	632	1946	
2646	0	779	731	632	1962	
2647	0	779	731	632	1980	
2648	0	779	732	632	2003	
2649	0	778	732	632	2022	
2650	0	780	731	631	2051	
2651	0	780	731	632	2065	
2652	0	780	730	632	2050	
2653	0	780	731	633	2014	
2654	0	778	731	632	1980	
2655	0	780	731	631	1975	
2656	0	780	731	631	2008	
2657	0	779	732	632	2043	
2658	0	777	731	632	2069	
2659	0	778	731	633	2081	
2660	0	779	731	631	2073	
2661	0	779	731	632	2078	
2662	0	779	732	632	2084	
2663	0	778	731	632	2076	
2664	0	779	732	633	2054	
2665	0	780	731	631	2054	
2666	0	780	731	632	2067	
2667	0	781	731	632	2104	
2668	0	780	731	632	2135	
2669	0	779	731	633	2155	
2670	0	780	731	631	2170	
2671	0	780	731	632	2176	
2672	0	780	731	632	2184	
2673	0	779	730	632	2191	
2674	0	778	730	633	2200	
2675	0	779	730	632	2209	
2676	0	779	731	633	2202	
2677	0	779	730	632	2188	
2678	0	779	730	632	2209	
2679	0	778	731	633	2230	
2680	0	778	731	632	2245	
2681	0	779	731	632	2253	
2682	0	779	731	632	2263	
2683	0	778	731	632	2270	
2684	0	778	731	634	2271	
2685	0	779	731	632	2270	
2686	0	779	731	632	2256	
2687	0	778	731	632	2251	
2688	0	779	731	632	2232	
2689	0	779	732	633	2243	
2690	0	780	731	632	2272	
2691	0	780	731	632	2301	
2692	0	780	731	632	2325	
2693	0	780	732	632	2337	
2694	0	778	732	633	2348	
2695	0	779	731	632	2358	
2696	0	780	732	632	2354	
2697	0	780	731	632	2324	
2698	0	780	731	632	2309	
2699	0	778	731	632	2292	
2700	0	779	731	632	2296	
2701	0	780	731	632	2308	
2702	0	779	731	632	2324	
2703	0	780	731	633	2329	
2704	0	779	731	633	2327	
2705	0	778	731	632	2331	
2706	0	778	731	633	2347	
2707	0	778	731	632	2365	
2708	0	779	731	633	2368	
2709	0	778	731	633	2362	
2710	0	778	731	632	2343	
2711	0	779	730	632	2336	
2712	0	779	731	632	2340	
2713	0	781	730	632	2344	
2714	0	781	731	633	2360	
2715	0	780	730	632	2373	
2716	0	781	731	632	2392	
2717	0	780	731	632	2410	
2718	0	780	731	632	2421	
2719	0	780	732	632	2422	
2720	0	780	731	632	2414	
2721	0	780	731	632	2395	
2722	0	780	731	632	2379	
2723	0	781	731	632	2359	
2724	0	779	731	632	2336	
2725	0	779	731	631	2327	
2726	0	780	731	632	2328	
2727	0	780	731	632	2338	
2728	0	780	731	632	2354	
2729	0	780	732	632	2375	
2730	0	780	731	631	2387	
2731	0	780	731	632	2393	
2732	0	780	731	632	2386	
2733	0	780	731	632	2372	
2734	0	780	731	632	2360	
2735	0	779	731	632	2347	
2736	0	780	731	632	2330	
2737	0	779	731	632	2324	
2738	0	780	731	632	2338	
2739	0	780	732	632	2353	
2740	0	780	731	631	2365	
2741	0	779	731	631	2364	
2742	0	779	731	632	2350	
2743	0	779	731	632	2337	
2744	0	778	730	632	2331	
2745	0	779	731	632	2337	
2746	0	777	730	631	2336	
2747	0	778	730	632	2340	
2748	0	779	731	632	2338	
2749	0	779	731	632	2343	
2750	0	779	730	631	2362	
2751	0	781	732	633	2383	
2752	0	782	730	633	2392	
2753	0	782	732	633	2391	
2754	0	783	732	632	2378	
2755	0	781	731	631	2333	
2756	0	781	732	633	2306	
2757	0	782	731	632	2240	
2758	0	782	730	632	2215	
2759	0	782	731	632	2216	
2760	0	781	731	631	2214	
2761	0	780	732	632	2207	
2762	0	780	732	632	2191	
2763	0	779	730	632	2172	
2764	0	780	731	633	2168	
2765	0	778	731	631	2162	
2766	0	780	732	632	2154	
2767	0	780	731	632	2110	
2768	0	780	731	632	2075	
2769	0	779	732	633	2060	
2770	0	778	731	632	2053	
2771	0	778	732	633	2074	
2772	0	779	732	633	2099	
2773	0	778	731	632	2116	
2774	0	778	731	632	2107	
2775	0	779	732	633	2100	
2776	0	778	731	632	2099	
2777	0	778	731	632	2096	
2778	0	779	730	632	2117	
2779	0	779	731	633	2124	
2780	0	779	730	631	2088	
2781	0	778	730	633	2062	
2782	0	780	731	633	2051	
2783	0	780	730	633	2041	
2784	0	781	731	632	2053	
2785	0	780	730	632	2058	
2786	0	780	731	633	2061	
2787	0	783	730	632	2052	
2788	0	781	730	633	2039	
2789	0	780	731	633	2013	
2790	0	780	730	632	2011	
2791	0	780	731	633	2043	
2792	0	782	732	633	2058	
2793	0	780	731	633	2061	
2794	0	780	731	633	2064	
2795	0	780	731	632	2059	
2796	0	779	730	632	2060	
2797	0	779	730	633	2070	
2798	0	780	731	632	2073	
2799	0	779	731	632	2058	
2800	0	780	732	633	2016	
2801	0	779	731	632	1983	
2802	0	780	731	632	2008	
2803	0	781	732	633	2021	
2804	0	780	732	632	2040	
2805	0	779	732	631	2053	
2806	0	780	732	632	2043	
2807	0	780	732	632	2050	
2808	0	780	732	632	2039	
2809	0	779	732	632	2043	
2810	0	779	732	632	2027	
2811	0	779	731	632	1987	
2812	0	779	732	632	1970	
2813	0	780	732	632	1966	
2814	0	780	732	633	1988	
2815	0	779	732	632	2021	
2816	0	779	731	633	2016	
2817	0	779	732	633	2030	
2818	0	780	732	633	2063	
2819	0	780	732	633	2084	
2820	0	779	732	632	2084	
2821	0	779	732	633	2055	
2822	0	779	731	633	2015	
2823	0	779	732	632	2003	
2824	0	779	731	633	2024	
2825	0	779	732	632	2056	
2826	0	778	731	633	2076	
2827	0	779	732	633	2056	
2828	0	779	730	632	2045	
2829	0	780	732	633	2075	
2830	0	779	732	632	2113	
2831	0	778	732	633	2139	
2832	0	779	732	632	2120	
2833	0	779	731	632	2089	
2834	0	779	732	633	2102	
2835	0	778	731	633	2126	
2836	0	778	732	633	2136	
2837	0	779	731	633	2099	
2838	0	779	730	632	2097	
2839	0	780	732	633	2111	
2840	0	778	731	632	2123	
2841	0	778	732	633	2128	
2842	0	780	734	633	2110	
2843	0	781	731	633	2093	
2844	0	780	732	633	2114	
2845	0	779	732	632	2137	
2846	0	780	732	632	2142	
2847	0	779	731	632	2127	
2848	0	780	732	632	2118	
2849	0	779	731	632	2135	
2850	0	779	731	632	2155	
2851	0	778	731	632	2144	
2852	0	778	731	632	2125	
2853	0	779	731	632	2120	
2854	0	779	732	632	2138	
2855	0	778	732	632	2160	
2856	0	779	732	633	2134	
2857	0	779	732	633	2090	
2858	0	780	731	632	2093	
2859	0	779	732	632	2112	
2860	0	779	731	632	2134	
2861	0	779	731	632	2111	
2862	0	779	731	632	2097	
2863	0	779	732	632	2114	
2864	0	779	732	632	2144	
2865	0	778	732	632	2160	
2866	0	778	732	632	2137	
2867	0	779	732	632	2096	
2868	0	779	732	631	2090	
2869	0	779	732	632	2107	
2870	0	778	731	632	2115	
2871	0	777	732	633	2099	
2872	0	779	734	632	2073	
2873	0	780	732	631	2080	
2874	0	779	732	632	2112	
2875	0	780	732	632	2121	
2876	0	778	731	631	2065	
2877	0	779	731	632	2051	
2878	0	780	732	632	2062	
2879	0	778	732	632	2088	
2880	0	779	732	632	2074	
2881	0	779	731	632	2027	
2882	0	778	731	633	2022	
2883	0	779	732	633	2011	
2884	0	778	731	633	2028	
2885	0	778	732	633	2030	
2886	0	777	731	632	2012	
2887	0	777	731	633	2008	
2888	0	778	732	633	2005	
2889	0	777	732	633	2013	
2890	0	777	732	632	2017	
2891	0	776	732	633	2014	
2892	0	778	734	632	2020	
2893	0	777	732	632	2015	
2894	0	778	732	633	2023	
2895	0	778	731	632	2023	
2896	0	777	732	633	2002	
2897	0	778	734	633	1988	
2898	0	779	731	632	2015	
2899	0	779	732	633	1995	
2900	0	779	732	633	1997	
2901	0	777	732	632	1960	
2902	0	779	731	632	1960	
2903	0	778	732	634	1993	
2904	0	779	733	633	2023	
2905	0	778	732	632	2037	
2906	0	777	732	633	2032	
2907	0	778	735	632	2005	
2908	0	779	732	632	2007	
2909	0	778	731	634	2021	
2910	0	779	732	633	1990	
2911	0	777	732	633	1980	
2912	0	777	732	633	1959	
2913	0	778	733	633	1937	
2914	0	778	732	634	1954	
2915	0	778	732	635	1998	
2916	0	778	732	634	2025	
2917	0	778	732	634	2058	
2918	0	779	732	635	2072	
2919	0	778	732	634	2064	
2920	0	779	732	635	2066	
2921	0	777	731	634	2058	
2922	0	778	731	634	2033	
2923	0	778	733	634	2012	
2924	0	778	733	635	1983	
2925	0	778	732	634	1955	
2926	0	777	732	635	1964	
2927	0	778	734	635	2002	
2928	0	778	732	636	2016	
2929	0	778	733	635	2008	
2930	0	777	732	635	2018	
2931	0	777	733	635	2016	
2932	0	779	735	635	2031	
2933	0	778	733	634	2047	
2934	0	778	733	635	2059	
2935	0	778	734	635	2049	
2936	0	777	733	635	2004	
2937	0	777	733	635	1975	
2938	0	779	734	636	1964	
2939	0	778	734	636	1973	
2940	0	779	734	636	1994	
2941	0	778	733	635	2013	
2942	0	780	733	636	2015	
2943	0	778	734	636	2028	
2944	0	778	734	636	2027	
2945	0	777	733	636	2052	
2946	0	775	733	639	2064	
2947	0	776	732	636	2056	
2948	0	778	733	636	2042	
2949	0	778	733	635	2024	
2950	0	777	733	635	1983	
2951	0	776	734	638	1942	
2952	0	777	733	635	1926	
2953	0	778	733	636	1939	
2954	0	776	733	636	1953	
2955	0	776	733	636	1977	
2956	0	776	734	636	2027	
2957	0	777	734	636	2076	
2958	0	777	734	636	2116	
2959	0	777	734	637	2108	
2960	0	776	734	637	2056	
2961	0	776	734	637	2028	
2962	0	778	734	637	2009	
2963	0	779	734	636	2015	
2964	0	776	734	636	2022	
2965	0	776	734	636	2051	
2966	0	776	734	637	2085	
2967	0	777	734	637	2086	
2968	0	777	734	636	2066	
2969	0	775	733	637	2049	
2970	0	774	734	637	2056	
2971	0	775	734	637	2088	
2972	0	775	734	638	2127	
2973	0	777	734	637	2153	
2974	0	776	733	638	2166	
2975	0	776	733	637	2160	
2976	0	775	733	637	2146	
2977	0	775	733	637	2132	
2978	0	776	734	636	2128	
2979	0	776	733	638	2124	
2980	0	776	734	637	2113	
2981	0	776	733	637	2116	
2982	0	775	734	637	2137	
2983	0	776	734	637	2155	
2984	0	776	734	637	2176	
2985	0	775	733	637	2191	
2986	0	775	734	636	2200	
2987	0	774	734	637	2208	
2988	0	775	734	637	2196	
2989	0	775	733	637	2183	
2990	0	776	734	637	2172	
2991	0	775	734	636	2153	
2992	0	775	734	637	2145	
2993	0	774	734	637	2142	
2994	0	774	733	637	2159	
2995	0	775	734	637	2186	
2996	0	775	733	637	2207	
2997	0	775	734	637	2229	
2998	0	774	735	637	2250	
2999	0	774	734	637	2263	
3000	0	774	734	636	2251	
3001	0	772	735	636	2227	
3002	0	775	735	636	2204	
3003	0	775	733	635	2181	
3004	0	775	734	636	2179	
3005	0	773	734	635	2182	
3006	0	773	734	635	2199	
3007	0	773	733	635	2224	
3008	0	772	734	634	2239	
3009	0	773	734	635	2247	
3010	0	773	733	634	2246	
3011	0	772	733	635	2242	
3012	0	773	735	634	2242	
3013	0	773	734	633	2232	
3014	0	773	734	633	2235	
3015	0	773	733	633	2239	
3016	0	773	733	633	2250	
3017	0	773	733	632	2265	
3018	0	774	733	632	2282	
3019	0	772	732	632	2287	
3020	0	774	734	632	2280	
3021	0	774	733	631	2271	
3022	0	774	733	631	2265	
3023	0	774	735	631	2254	
3024	0	773	733	631	2248	
3025	0	774	734	631	2250	
3026	0	774	734	631	2261	
3027	0	774	734	631	2268	
3028	0	775	734	630	2261	
3029	0	774	734	631	2257	
3030	0	774	735	631	2251	
3031	0	775	734	631	2247	
3032	0	775	734	631	2250	
3033	0	776	735	630	2245	
3034	0	775	735	631	2247	
3035	0	776	735	630	2254	
3036	0	775	735	630	2266	
3037	0	776	735	631	2279	
3038	0	777	735	630	2294	
3039	0	775	735	631	2304	
3040	0	775	735	631	2301	
3041	0	775	735	631	2291	
3042	0	776	735	632	2280	
3043	0	777	735	631	2261	
3044	0	776	735	632	2240	
3045	0	775	735	632	2229	
3046	0	775	735	632	2231	
3047	0	774	735	632	2235	
3048	0	775	735	632	2237	
3049	0	774	735	632	2241	
3050	0	774	735	632	2249	
3051	0	774	736	633	2267	
3052	0	774	736	634	2279	
3053	0	774	735	632	2277	
3054	0	772	734	632	2259	
3055	0	773	735	632	2247	
3056	0	773	735	632	2240	
3057	0	772	734	631	2245	
3058	0	772	733	630	2264	
3059	0	770	734	632	2259	
3060	0	772	735	632	2246	
3061	0	772	735	632	2229	
3062	0	771	734	631	2233	
3063	0	772	734	631	2243	
3064	0	772	734	632	2253	
3065	0	770	733	632	2250	
3066	0	770	734	632	2241	
3067	0	771	734	630	2231	
3068	0	771	733	631	2222	
3069	0	770	732	631	2219	
3070	0	771	733	631	2213	
3071	0	770	733	632	2208	
3072	0	770	734	632	2210	
3073	0	770	735	632	2210	
3074	0	769	733	632	2221	
3075	0	770	735	633	2241	
3076	0	769	734	632	2248	
3077	0	769	734	633	2254	
3078	0	770	735	633	2259	
3079	0	768	734	633	2260	
3080	0	769	734	633	2253	
3081	0	769	735	634	2239	
3082	0	769	735	633	2210	
3083	0	768	735	634	2172	
3084	0	768	733	634	2152	
3085	0	768	735	635	2153	
3086	0	768	734	634	2167	
3087	0	767	734	634	2187	
3088	0	767	734	635	2206	
3089	0	766	734	635	2220	
3090	0	767	734	635	2229	
3091	0	766	735	637	2235	
3092	0	767	735	637	2220	
3093	0	767	734	636	2173	
3094	0	765	734	636	2128	
3095	0	767	735	637	2116	
3096	0	767	734	637	2128	
3097	0	766	734	637	2155	
3098	0	767	735	639	2187	
3099	0	766	734	638	2211	
3100	0	767	735	638	2217	
3101	0	767	734	638	2214	
3102	0	767	734	638	2207	
3103	0	767	735	639	2183	
3104	0	765	734	639	2131	
3105	0	765	735	639	2089	
3106	0	766	734	641	2072	
3107	0	767	734	639	2085	
3108	0	767	735	640	2110	
3109	0	767	733	641	2142	
3110	0	766	733	640	2161	
3111	0	766	733	640	2172	
3112	0	765	732	641	2177	
3113	0	766	733	641	2175	
3114	0	765	733	641	2172	
3115	0	765	733	641	2169	
3116	0	766	733	640	2162	
3117	0	765	733	641	2139	
3118	0	765	732	641	2137	
3119	0	765	732	641	2140	
3120	0	765	732	642	2146	
3121	0	766	732	642	2153	
3122	0	765	731	642	2156	
3123	0	765	732	642	2148	
3124	0	763	731	643	2140	
3125	0	764	731	642	2133	
3126	0	764	731	643	2133	
3127	0	765	731	642	2137	
3128	0	765	730	642	2140	
3129	0	764	730	642	2126	
3130	0	765	731	642	2123	
3131	0	764	731	642	2127	
3132	0	765	731	642	2139	
3133	0	765	731	643	2141	
3134	0	764	731	642	2137	
3135	0	765	730	642	2119	
3136	0	765	731	643	2103	
3137	0	765	730	642	2081	
3138	0	765	729	643	2094	
3139	0	763	729	644	2113	
3140	0	765	730	645	2126	
3141	0	765	730	644	2126	
3142	0	763	731	644	2124	
3143	0	764	731	645	2123	
3144	0	763	730	644	2118	
3145	0	764	731	644	2108	
3146	0	764	730	643	2082	
3147	0	764	728	643	2058	
3148	0	765	729	643	2044	
3149	0	764	728	644	2056	
3150	0	764	728	644	2074	
3151	0	764	728	644	2096	
3152	0	764	728	645	2105	
3153	0	764	729	645	2102	
3154	0	763	728	645	2091	
3155	0	763	728	645	2090	
3156	0	763	728	645	2083	
3157	0	763	728	645	2072	
3158	0	763	729	645	2070	
3159	0	762	729	646	2071	
3160	0	762	729	645	2071	
3161	0	763	729	645	2085	
3162	0	763	728	646	2093	
3163	0	762	730	646	2089	
3164	0	761	728	647	2087	
3165	0	762	729	646	2084	
3166	0	762	729	647	2093	
3167	0	762	729	647	2111	
3168	0	762	730	646	2115	
3169	0	761	729	646	2114	
3170	0	761	730	646	2101	
3171	0	762	730	646	2083	
3172	0	762	730	647	2074	
3173	0	762	731	647	2050	
3174	0	760	730	647	2030	
3175	0	762	730	647	2016	
3176	0	762	730	646	2027	
3177	0	760	730	647	2050	
3178	0	761	730	648	2087	
3179	0	761	730	648	2118	
3180	0	761	730	649	2123	
3181	0	761	730	648	2123	
3182	0	761	730	648	2091	
3183	0	761	731	648	2046	
3184	0	761	731	648	2018	
3185	0	759	730	647	1984	
3186	0	761	730	646	1956	
3187	0	761	730	646	1949	
3188	0	762	730	647	1967	
3189	0	760	730	648	2002	
3190	0	761	730	648	2035	
3191	0	761	730	648	2068	
3192	0	762	729	648	2086	
3193	0	762	731	648	2076	
3194	0	761	731	649	2059	
3195	0	760	730	649	2031	
3196	0	759	731	648	2030	
3197	0	759	731	647	2033	
3198	0	759	731	648	2031	
3199	0	760	731	649	2033	
3200	0	759	731	649	2028	
3201	0	759	730	650	2036	
3202	0	759	731	648	2039	
3203	0	758	730	649	2020	
3204	0	758	731	650	2003	
3205	0	758	731	649	2004	
3206	0	759	731	651	2019	
3207	0	759	732	649	2038	
3208	0	758	733	649	2036	
3209	0	758	732	650	2010	
3210	0	756	731	649	1980	
3211	0	756	730	648	1973	
3212	0	756	730	648	1978	
3213	0	756	729	648	1987	
3214	0	756	728	647	1996	
3215	0	756	727	646	2005	
3216	0	756	727	647	2015	
3217	0	756	728	647	2029	
3218	0	756	727	648	2047	
3219	0	756	728	648	2061	
3220	0	756	728	648	2055	
3221	0	756	728	648	2028	
3222	0	755	730	648	2006	
3223	0	756	730	648	1997	
3224	0	756	730	649	2004	
3225	0	756	730	648	2019	
3226	0	756	730	648	2012	
3227	0	755	730	648	1992	
3228	0	755	730	648	1972	
3229	0	754	730	648	1959	
3230	0	755	729	648	1959	
3231	0	755	729	648	1966	
3232	0	755	729	648	1976	
3233	0	755	729	648	1974	
3234	0	754	729	649	1962	
3235	0	754	729	649	1962	
3236	0	754	729	649	1962	
3237	0	754	729	649	1942	
3238	0	754	730	648	1920	
3239	0	755	730	648	1885	
3240	0	755	729	648	1858	
3241	0	754	729	649	1870	
3242	0	753	729	648	1874	
3243	0	754	729	648	1868	
3244	0	754	729	648	1862	
3245	0	755	728	648	1820	
3246	0	754	728	649	1786	
3247	0	754	729	649	1758	
3248	0	754	730	649	1757	
3249	0	753	729	650	1752	
3250	0	754	728	649	1763	
3251	0	754	727	649	1774	
3252	0	754	728	648	1745	
3253	0	754	728	648	1700	
3254	0	753	728	649	1649	
3255	0	753	727	649	1626	
3256	0	754	728	649	1620	
3257	0	753	729	649	1655	
3258	0	753	728	649	1682	
3259	0	752	728	650	1705	
3260	0	752	728	649	1705	
3261	0	751	728	649	1689	
3262	0	751	728	648	1671	
3263	0	752	729	647	1672	
3264	0	751	728	648	1687	
3265	0	751	728	647	1678	
3266	0	750	727	648	1683	
3267	0	750	728	646	1683	
3268	0	750	729	647	1687	
3269	0	749	728	646	1695	
3270	0	748	727	645	1721	
3271	0	747	726	645	1726	
3272	0	749	728	643	1709	
3273	0	748	727	643	1690	
3274	0	748	727	644	1667	
3275	0	747	725	643	1644	
3276	0	746	723	643	1669	
3277	0	746	725	642	1712	
3278	0	745	724	643	1749	
3279	0	745	725	642	1772	
3280	0	744	723	642	1768	
3281	0	744	722	643	1755	
3282	0	745	724	644	1745	
3283	0	744	724	641	1760	
3284	0	743	724	641	1748	
3285	0	742	723	640	1721	
3286	0	741	723	640	1722	
3287	0	740	723	640	1711	
3288	0	741	724	639	1711	
3289	0	742	724	640	1756	
3290	0	741	724	639	1793	
3291	0	740	722	640	1806	
3292	0	740	724	640	1820	
3293	0	739	724	639	1789	
3294	0	739	724	639	1743	
3295	0	739	723	639	1738	
3296	0	738	722	639	1762	
3297	0	739	724	639	1750	
3298	0	738	724	636	1755	
3299	0	737	723	636	1748	
3300	0	737	723	636	1743	
3301	0	737	722	636	1773	
3302	0	738	723	637	1821	
3303	0	737	724	634	1841	
3304	0	736	722	634	1847	
3305	0	737	722	633	1832	
3306	0	735	721	632	1800	
3307	0	736	721	632	1776	
3308	0	736	721	633	1791	
3309	0	736	721	633	1789	
3310	0	737	721	631	1800	
3311	0	736	721	631	1790	
3312	0	735	721	631	1771	
3313	0	735	723	630	1769	
3314	0	736	721	630	1796	
3315	0	736	722	630	1790	
3316	0	735	721	631	1797	
3317	0	735	723	631	1766	
3318	0	735	723	631	1733	
3319	0	735	723	631	1714	
3320	0	736	724	631	1709	
3321	0	735	723	629	1687	
3322	0	734	723	629	1696	
3323	0	735	724	629	1688	
3324	0	735	723	629	1664	
3325	0	736	723	630	1640	
3326	0	735	723	630	1629	
3327	0	735	724	629	1589	
3328	0	736	725	629	1531	
3329	0	736	724	630	1462	
3330	0	735	723	629	1392	
3331	0	735	723	629	1359	
3332	0	735	724	630	1353	
3333	0	735	724	630	1344	
3334	0	735	723	630	1355	
3335	0	736	724	629	1412	
3336	0	737	724	629	1465	
3337	0	736	725	629	1507	
3338	0	738	726	630	1559	
3339	0	738	724	631	1579	
3340	0	738	724	630	1543	
3341	0	738	724	631	1502	
3342	0	737	725	630	1460	
3343	0	738	726	630	1436	
3344	0	739	725	630	1443	
3345	0	738	725	630	1486	
3346	0	739	725	630	1556	
3347	0	738	726	631	1611	
3348	0	739	727	631	1698	
3349	0	739	726	632	1795	
3350	0	740	726	632	1879	
3351	0	742	726	633	1959	
3352	0	741	728	633	2030	
3353	0	740	727	631	2075	
3354	0	741	727	632	2125	
3355	0	740	727	632	2205	
3356	0	740	726	633	2314	
3357	0	740	728	635	2392	
3358	0	740	727	633	2440	
3359	0	740	727	633	2480	
3360	0	740	726	632	2491	
3361	0	740	726	633	2468	
3362	0	740	726	633	2432	
3363	0	739	726	634	2396	
3364	0	738	726	633	2357	
3365	0	739	726	635	2302	
3366	0	739	725	635	2230	
3367	0	739	726	635	2195	
3368	0	740	726	636	2160	
3369	0	738	727	635	2119	
3370	0	738	726	635	2089	
3371	0	738	726	634	2077	
3372	0	739	726	635	2069	
3373	0	739	726	636	2051	
3374	0	738	726	636	2045	
3375	0	738	726	636	2046	
3376	0	737	725	635	2044	
3377	0	737	726	636	2023	
3378	0	738	726	636	1992	
3379	0	738	727	636	1972	
3380	0	739	727	637	1987	
3381	0	739	727	637	2008	
3382	0	739	727	638	2027	
3383	0	739	728	638	2046	
3384	0	738	727	637	2047	
3385	0	739	728	639	2026	
3386	0	739	728	637	1985	
3387	0	740	727	640	1980	
3388	0	740	728	641	1970	
3389	0	739	728	641	1973	
3390	0	739	727	641	2002	
3391	0	738	726	642	2013	
3392	0	738	727	644	1985	
3393	0	738	727	641	1959	
3394	0	737	726	642	1896	
3395	0	737	727	644	1867	
3396	0	736	727	645	1894	
3397	0	735	726	645	1902	
3398	0	735	727	645	1914	
3399	0	734	727	646	1897	
3400	0	733	727	646	1851	
3401	0	733	727	645	1843	
3402	0	733	729	646	1861	
3403	0	734	729	648	1860	
3404	0	735	728	648	1878	
3405	0	734	728	647	1863	
3406	0	734	728	649	1832	
3407	0	734	728	649	1813	
3408	0	736	728	649	1783	
3409	0	737	727	651	1799	
3410	0	737	727	651	1796	
3411	0	738	728	650	1771	
3412	0	737	728	651	1775	
3413	0	739	728	652	1774	
3414	0	738	728	652	1813	
3415	0	738	727	651	1817	
3416	0	739	727	651	1820	
3417	0	739	727	651	1831	
3418	0	740	728	652	1824	
3419	0	739	727	654	1831	
3420	0	738	727	654	1794	
3421	0	739	727	654	1748	
3422	0	738	727	653	1733	
3423	0	737	727	653	1730	
3424	0	738	728	654	1744	
3425	0	736	727	653	1760	
3426	0	735	727	653	1751	
3427	0	735	727	654	1769	
3428	0	736	727	655	1801	
3429	0	734	726	654	1807	
3430	0	733	727	655	1801	
3431	0	732	727	655	1775	
3432	0	732	726	656	1739	
3433	0	733	727	656	1737	
3434	0	732	726	656	1758	
3435	0	732	726	656	1755	
3436	0	732	726	657	1754	
3437	0	734	727	658	1735	
3438	0	733	726	657	1735	
3439	0	732	726	657	1763	
3440	0	731	726	657	1752	
3441	0	731	724	658	1773	
3442	0	731	725	657	1774	
3443	0	731	725	656	1765	
3444	0	732	724	658	1787	
3445	0	730	723	658	1782	
3446	0	730	722	658	1804	
3447	0	731	722	658	1792	
3448	0	730	721	659	1756	
3449	0	729	720	659	1745	
3450	0	730	721	661	1743	
3451	0	729	719	660	1768	
3452	0	729	720	660	1766	
3453	0	730	720	660	1745	
3454	0	729	719	659	1742	
3455	0	730	720	660	1744	
3456	0	730	719	659	1766	
3457	0	730	718	660	1768	
3458	0	732	718	661	1772	
3459	0	731	718	661	1782	
3460	0	733	719	661	1778	
3461	0	732	719	661	1782	
3462	0	732	719	661	1782	
3463	0	733	719	660	1769	
3464	0	733	718	660	1782	
3465	0	732	719	660	1798	
3466	0	732	719	661	1813	
3467	0	732	719	663	1812	
3468	0	733	720	662	1808	
3469	0	732	718	661	1816	
3470	0	733	720	661	1831	
3471	0	732	719	660	1864	
3472	0	733	719	660	1877	
3473	0	733	719	661	1869	
3474	0	733	719	661	1875	
3475	0	732	718	660	1864	
3476	0	731	719	661	1896	
3477	0	731	720	663	1891	
3478	0	730	719	660	1879	
3479	0	731	720	661	1887	
3480	0	730	719	660	1906	
3481	0	730	720	660	1948	
3482	0	730	720	662	1971	
3483	0	730	719	660	1978	
3484	0	731	720	660	1989	
3485	0	730	719	659	1981	
3486	0	729	719	660	1990	
3487	0	728	720	660	1984	
3488	0	728	720	660	1962	
3489	0	729	721	659	1953	
3490	0	728	719	658	1949	
3491	0	728	720	658	1970	
3492	0	727	721	660	1977	
3493	0	727	720	657	1990	
3494	0	728	721	658	1990	
3495	0	728	720	657	2025	
3496	0	727	721	658	2039	
3497	0	727	721	657	2030	
3498	0	726	721	657	2030	
3499	0	726	720	657	2022	
3500	0	726	721	657	2036	
3501	0	724	721	655	2012	
3502	0	726	721	655	1990	
3503	0	725	722	655	1996	
3504	0	723	720	654	2016	
3505	0	724	721	654	2047	
3506	0	723	722	653	2055	
3507	0	723	721	653	2080	
3508	0	723	722	653	2083	
3509	0	722	720	652	2083	
3510	0	722	722	651	2075	
3511	0	721	722	651	2045	
3512	0	720	721	650	2051	
3513	0	720	721	649	2056	
3514	0	719	722	649	2095	
3515	0	719	721	648	2099	
3516	0	718	721	648	2082	
3517	0	718	722	650	2079	
3518	0	717	721	647	2102	
3519	0	718	722	647	2140	
3520	0	716	720	646	2119	
3521	0	716	721	646	2073	
3522	0	715	721	646	2057	
3523	0	715	722	646	2064	
3524	0	714	720	646	2095	
3525	0	714	720	645	2120	
3526	0	713	720	645	2135	
3527	0	713	721	646	2148	
3528	0	713	721	643	2157	
3529	0	713	721	644	2155	
3530	0	713	720	643	2134	
3531	0	713	720	643	2102	
3532	0	711	721	642	2092	
3533	0	712	722	643	2106	
3534	0	712	720	643	2119	
3535	0	712	720	643	2131	
3536	0	713	720	642	2133	
3537	0	712	721	642	2154	
3538	0	714	722	644	2195	
3539	0	713	720	644	2219	
3540	0	713	721	645	2209	
3541	0	714	721	644	2175	
3542	0	713	721	643	2144	
3543	0	713	721	643	2126	
3544	0	715	722	643	2149	
3545	0	716	721	642	2172	
3546	0	716	722	643	2198	
3547	0	716	721	643	2200	
3548	0	717	722	643	2190	
3549	0	717	721	641	2192	
3550	0	717	722	643	2209	
3551	0	716	722	642	2223	
3552	0	717	722	643	2227	
3553	0	717	723	644	2205	
3554	0	717	722	643	2180	
3555	0	718	724	644	2183	
3556	0	718	723	644	2192	
3557	0	718	723	645	2225	
3558	0	719	724	644	2248	
3559	0	718	724	644	2241	
3560	0	717	723	643	2232	
3561	0	717	723	644	2215	
3562	0	718	724	646	2193	
3563	0	718	724	643	2181	
3564	0	718	725	644	2153	
3565	0	718	724	644	2154	
3566	0	719	724	644	2177	
3567	0	718	725	644	2183	
3568	0	719	726	645	2188	
3569	0	717	724	644	2163	
3570	0	717	726	644	2160	
3571	0	716	726	643	2184	
3572	0	717	725	643	2206	
3573	0	718	726	644	2217	
3574	0	716	725	644	2176	
3575	0	717	726	645	2135	
3576	0	715	726	645	2115	
3577	0	717	726	646	2101	
3578	0	717	726	645	2131	
3579	0	718	727	645	2117	
3580	0	717	726	644	2111	
3581	0	718	726	644	2114	
3582	0	716	727	645	2121	
3583	0	717	726	645	2140	
3584	0	717	725	645	2132	
3585	0	718	726	646	2147	
3586	0	715	726	646	2142	
3587	0	715	725	646	2152	
3588	0	716	726	646	2154	
3589	0	715	724	646	2127	
3590	0	714	725	647	2115	
3591	0	713	725	648	2101	
3592	0	715	726	649	2120	
3593	0	715	726	646	2115	
3594	0	715	725	647	2109	
3595	0	715	726	647	2137	
3596	0	713	725	646	2150	
3597	0	715	725	646	2185	
3598	0	714	725	647	2170	
3599	0	714	723	646	2129	
3600	0	713	724	647	2108	
3601	0	714	724	648	2088	
3602	0	715	724	649	2112	
3603	0	714	723	648	2119	
3604	0	713	722	645	2122	
3605	0	714	724	647	2154	
3606	0	712	724	647	2176	
3607	0	714	723	649	2210	
3608	0	714	723	649	2215	
3609	0	713	723	648	2205	
3610	0	712	722	648	2196	
3611	0	712	723	649	2185	
3612	0	714	723	651	2182	
3613	0	714	722	650	2161	
3614	0	716	722	648	2128	
3615	0	714	721	649	2124	
3616	0	714	722	649	2158	
3617	0	715	722	648	2195	
3618	0	715	721	649	2235	
3619	0	715	721	650	2234	
3620	0	715	721	650	2213	
3621	0	715	722	651	2206	
3622	0	716	722	650	2180	
3623	0	715	721	651	2165	
3624	0	715	721	652	2137	
3625	0	714	721	651	2118	
3626	0	714	722	652	2136	
3627	0	715	722	652	2159	
3628	0	715	722	654	2188	
3629	0	715	722	654	2202	
3630	0	714	723	652	2193	
3631	0	714	723	654	2192	
3632	0	715	723	655	2192	
3633	0	714	723	654	2186	
3634	0	716	722	653	2187	
3635	0	715	722	652	2173	
3636	0	716	722	652	2167	
3637	0	715	722	652	2188	
3638	0	715	722	650	2207	
3639	0	714	720	650	2228	
3640	0	713	720	651	2201	
3641	0	714	720	651	2187	
3642	0	713	720	652	2194	
3643	0	713	720	650	2194	
3644	0	712	720	651	2207	
3645	0	711	720	651	2196	
3646	0	712	720	651	2176	
3647	0	711	720	651	2175	
3648	0	710	720	650	2193	
3649	0	710	720	650	2206	
3650	0	711	719	651	2226	
3651	0	711	719	651	2220	
3652	0	711	720	651	2224	
3653	0	710	720	651	2233	
3654	0	709	718	651	2235	
3655	0	709	719	651	2257	
3656	0	709	718	650	2243	
3657	0	709	718	651	2217	
3658	0	710	718	650	2220	
3659	0	709	718	651	2231	
3660	0	710	718	652	2241	
3661	0	711	718	651	2251	
3662	0	709	717	652	2241	
3663	0	710	718	652	2244	
3664	0	710	717	652	2267	
3665	0	710	718	653	2274	
3666	0	712	718	652	2287	
3667	0	709	718	652	2262	
3668	0	710	718	652	2239	
3669	0	710	719	653	2240	
3670	0	709	718	653	2228	
3671	0	708	717	653	2232	
3672	0	708	718	653	2235	
3673	0	709	719	653	2232	
3674	0	708	717	654	2250	
3675	0	709	718	654	2278	
3676	0	708	719	654	2299	
3677	0	709	719	654	2319	
3678	0	710	719	654	2299	
3679	0	709	719	654	2282	
3680	0	710	719	655	2277	
3681	0	712	719	654	2252	
3682	0	710	719	655	2259	
3683	0	711	720	656	2250	
3684	0	710	720	655	2238	
3685	0	711	720	657	2258	
3686	0	710	719	657	2274	
3687	0	711	719	658	2294	
3688	0	711	720	659	2315	
3689	0	710	720	657	2301	
3690	0	710	720	657	2296	
3691	0	711	720	656	2296	
3692	0	711	719	656	2265	
3693	0	712	720	657	2241	
3694	0	712	719	657	2185	
3695	0	712	719	658	2161	
3696	0	712	719	659	2197	
3697	0	711	719	659	2247	
3698	0	711	720	658	2290	
3699	0	711	720	659	2317	
3700	0	710	719	659	2302	
3701	0	710	719	660	2291	
3702	0	710	718	660	2280	
3703	0	710	719	660	2241	
3704	0	709	719	659	2223	
3705	0	708	719	660	2191	
3706	0	708	718	659	2166	
3707	0	707	718	660	2194	
3708	0	708	719	660	2225	
3709	0	708	719	661	2254	
3710	0	707	719	660	2282	
3711	0	708	720	660	2275	
3712	0	707	721	661	2275	
3713	0	708	721	662	2278	
3714	0	708	721	661	2271	
3715	0	709	721	661	2277	
3716	0	710	721	660	2273	
3717	0	711	721	661	2236	
3718	0	712	722	661	2236	
3719	0	712	722	660	2250	
3720	0	712	722	660	2239	
3721	0	713	722	661	2235	
3722	0	712	722	661	2229	
3723	0	711	723	662	2213	
3724	0	710	723	662	2228	
3725	0	710	723	663	2252	
3726	0	710	723	663	2262	
3727	0	709	723	663	2270	
3728	0	708	723	663	2272	
3729	0	708	723	663	2254	
3730	0	707	723	664	2247	
3731	0	706	723	663	2252	
3732	0	706	723	662	2246	
3733	0	706	724	664	2229	
3734	0	705	724	663	2230	
3735	0	706	724	664	2244	
3736	0	705	724	663	2260	
3737	0	704	724	663	2284	
3738	0	705	725	664	2311	
3739	0	704	725	664	2322	
3740	0	703	725	665	2310	
3741	0	702	725	663	2290	
3742	0	703	724	662	2274	
3743	0	704	724	663	2248	
3744	0	705	725	663	2237	
3745	0	705	723	662	2230	
3746	0	705	724	663	2228	
3747	0	705	724	663	2230	
3748	0	704	724	663	2239	
3749	0	705	725	663	2262	
3750	0	705	724	664	2277	
3751	0	705	724	665	2295	
3752	0	705	725	664	2307	
3753	0	704	724	664	2308	
3754	0	703	723	664	2300	
3755	0	704	724	664	2278	
3756	0	705	724	663	2262	
3757	0	703	725	662	2270	
3758	0	703	725	662	2291	
3759	0	702	724	662	2310	
3760	0	703	725	663	2318	
3761	0	705	725	662	2312	
3762	0	701	724	663	2306	
3763	0	702	725	663	2292	
3764	0	702	725	663	2273	
3765	0	702	725	661	2260	
3766	0	700	726	663	2259	
3767	0	700	726	663	2268	
3768	0	701	726	664	2282	
3769	0	702	726	662	2286	
3770	0	702	726	661	2287	
3771	0	703	726	659	2288	
3772	0	700	727	660	2294	
3773	0	701	727	663	2299	
3774	0	700	727	663	2302	
3775	0	700	728	664	2309	
3776	0	701	728	664	2315	
3777	0	701	730	665	2322	
3778	0	703	729	667	2333	
3779	0	702	729	664	2340	
3780	0	703	730	664	2336	
3781	0	704	729	663	2320	
3782	0	702	729	663	2309	
3783	0	703	730	663	2292	
3784	0	702	730	663	2269	
3785	0	703	731	663	2258	
3786	0	705	731	663	2254	
3787	0	703	730	665	2264	
3788	0	705	731	665	2279	
3789	0	705	730	666	2296	
3790	0	705	730	666	2312	
3791	0	706	729	666	2327	
3792	0	706	729	666	2334	
3793	0	706	728	666	2328	
3794	0	706	728	665	2317	
3795	0	707	728	666	2307	
3796	0	707	728	667	2299	
3797	0	707	728	668	2295	
3798	0	707	729	667	2302	
3799	0	707	729	667	2312	
3800	0	707	730	668	2313	
3801	0	706	730	668	2308	
3802	0	706	730	669	2311	
3803	0	707	731	669	2319	
3804	0	707	731	670	2327	
3805	0	707	731	670	2327	
3806	0	707	731	670	2327	
3807	0	708	732	672	2333	
3808	0	709	732	672	2336	
3809	0	709	732	673	2336	
3810	0	710	733	674	2343	
3811	0	711	732	672	2343	
3812	0	710	733	673	2346	
3813	0	710	733	672	2339	
3814	0	710	732	673	2331	
3815	0	710	733	674	2330	
3816	0	711	732	674	2336	
3817	0	709	732	675	2348	
3818	0	710	733	675	2361	
3819	0	710	732	676	2369	
3820	0	711	733	677	2368	
3821	0	713	733	676	2352	
3822	0	709	734	675	2333	
3823	0	711	734	676	2305	
3824	0	711	734	676	2281	
3825	0	712	735	677	2284	
3826	0	715	734	677	2294	
3827	0	712	734	678	2313	
3828	0	713	734	678	2336	
3829	0	713	733	678	2354	
3830	0	714	733	679	2356	
3831	0	713	734	678	2363	
3832	0	715	735	679	2361	
3833	0	714	735	679	2325	
3834	0	714	735	680	2300	
3835	0	715	736	679	2223	
3836	0	715	736	679	2166	
3837	0	712	735	678	2158	
3838	0	715	735	678	2171	
3839	0	714	734	678	2188	
3840	0	715	734	679	2199	
3841	0	715	733	679	2178	
3842	0	713	733	679	2186	
3843	0	713	733	680	2196	
3844	0	712	733	680	2183	
3845	0	714	733	681	2168	
3846	0	713	733	681	2106	
3847	0	711	732	681	2044	
3848	0	712	733	681	2043	
3849	0	711	732	680	2063	
3850	0	712	732	681	2078	
3851	0	710	732	680	2104	
3852	0	710	732	682	2098	
3853	0	709	732	680	2081	
3854	0	709	732	681	2085	
3855	0	708	731	681	2100	
3856	0	707	731	680	2110	
3857	0	707	732	681	2123	
3858	0	706	732	681	2112	
3859	0	706	733	682	2090	
3860	0	706	732	681	2069	
3861	0	706	732	680	2060	
3862	0	706	732	682	2031	
3863	0	707	732	681	2018	
3864	0	707	732	681	1996	
3865	0	706	731	680	1983	
3866	0	706	731	680	2006	
3867	0	706	732	680	2044	
3868	0	706	733	680	2057	
3869	0	705	732	681	2067	
3870	0	706	733	681	2050	
3871	0	707	732	681	2025	
3872	0	706	733	681	2023	
3873	0	707	733	682	2028	
3874	0	705	733	682	1999	
3875	0	705	733	682	2001	
3876	0	705	732	682	1976	
3877	0	704	733	682	1958	
3878	0	703	734	682	1968	
3879	0	703	734	681	2006	
3880	0	703	733	681	2025	
3881	0	703	734	681	2045	
3882	0	702	735	682	2040	
3883	0	703	735	683	2023	
3884	0	703	735	683	2014	
3885	0	702	735	683	2017	
3886	0	702	735	682	2008	
3887	0	703	735	684	2001	
3888	0	704	735	683	1979	
3889	0	703	735	683	1956	
3890	0	703	735	683	1963	
3891	0	703	735	682	1994	
3892	0	703	735	684	2017	
3893	0	702	734	686	2011	
3894	0	703	734	685	2011	
3895	0	703	735	685	1994	
3896	0	706	735	685	1999	
3897	0	705	736	685	2029	
3898	0	705	736	686	2062	
3899	0	704	736	686	2057	
3900	0	704	736	686	2053	
3901	0	704	735	685	2024	
3902	0	705	736	686	2006	
3903	0	704	736	686	2019	
3904	0	706	736	687	2044	
3905	0	706	736	686	2042	
3906	0	706	736	686	2055	
3907	0	707	737	689	2048	
3908	0	707	736	689	2011	
3909	0	707	736	689	2018	
3910	0	707	736	689	2037	
3911	0	708	736	688	2053	
3912	0	709	737	689	2066	
3913	0	708	737	689	2058	
3914	0	710	737	689	2013	
3915	0	710	737	689	2011	
3916	0	710	738	689	2034	
3917	0	709	738	690	2026	
3918	0	711	738	691	2023	
3919	0	711	738	690	2042	
3920	0	712	738	690	2048	
3921	0	711	739	689	2063	
3922	0	709	739	689	2095	
3923	0	711	739	690	2121	
3924	0	711	739	689	2106	
3925	0	713	739	689	2079	
3926	0	713	740	689	2065	
3927	0	714	740	690	2039	
3928	0	712	740	691	2031	
3929	0	713	740	689	2041	
3930	0	713	741	690	2048	
3931	0	712	740	689	2059	
3932	0	713	740	690	2075	
3933	0	713	741	691	2073	
3934	0	712	740	689	2088	
3935	0	712	739	690	2113	
3936	0	713	740	690	2125	
3937	0	712	740	691	2108	
3938	0	711	740	691	2112	
3939	0	712	739	690	2119	
3940	0	712	740	691	2111	
3941	0	711	738	689	2110	
3942	0	710	739	690	2119	
3943	0	709	738	690	2102	
3944	0	710	739	690	2086	
3945	0	709	738	690	2083	
3946	0	709	738	689	2102	
3947	0	709	738	690	2127	
3948	0	709	737	689	2152	
3949	0	710	737	689	2163	
3950	0	709	736	689	2157	
3951	0	709	736	688	2148	
3952	0	710	737	689	2124	
3953	0	708	737	688	2110	
3954	0	709	737	689	2123	
3955	0	708	738	689	2132	
3956	0	709	736	689	2111	
3957	0	708	737	688	2122	
3958	0	706	737	689	2141	
3959	0	706	736	689	2160	
3960	0	707	739	688	2173	
3961	0	705	737	688	2182	
3962	0	705	737	688	2170	
3963	0	704	737	689	2152	
3964	0	704	737	686	2140	
3965	0	703	737	686	2133	
3966	0	703	737	687	2146	
3967	0	703	737	687	2149	
3968	0	702	738	688	2132	
3969	0	703	737	687	2121	
3970	0	702	737	686	2117	
3971	0	702	737	686	2115	
3972	0	702	737	687	2135	
3973	0	701	738	687	2154	
3974	0	701	737	685	2142	
3975	0	702	737	684	2128	
3976	0	702	737	684	2122	
3977	0	702	737	685	2096	
3978	0	702	737	684	2079	
3979	0	701	737	683	2094	
3980	0	702	738	682	2075	
3981	0	701	739	681	2060	
3982	0	702	739	682	2042	
3983	0	701	739	682	2025	
3984	0	702	740	681	2035	
3985	0	702	740	680	2052	
3986	0	702	740	679	2053	
3987	0	702	741	680	2052	
3988	0	702	742	681	2050	
3989	0	702	741	680	2036	
3990	0	702	741	679	2021	
3991	0	702	742	679	2033	
3992	0	703	742	679	2050	
3993	0	702	742	678	2032	
3994	0	703	742	678	2027	
3995	0	704	742	677	2026	
3996	0	702	743	677	2008	
3997	0	702	744	677	2002	
3998	0	702	744	676	2022	
3999	0	702	744	675	2036	
4000	0	702	744	676	2017	
4001	0	703	744	677	2006	
4002	0	702	744	677	1989	
4003	0	701	745	677	1970	
4004	0	700	744	676	1964	
4005	0	700	744	676	1971	
4006	0	700	743	677	1968	
4007	0	701	744	676	1966	
4008	0	701	744	677	1959	
4009	0	699	744	675	1948	
4010	0	699	744	676	1950	
4011	0	699	743	675	1960	
4012	0	699	744	676	1965	
4013	0	698	744	676	1947	
4014	0	700	745	676	1942	
4015	0	699	744	674	1929	
4016	0	698	744	674	1913	
4017	0	699	745	675	1915	
4018	0	699	745	675	1940	
4019	0	698	745	673	1939	
4020	0	698	744	675	1922	
4021	0	699	743	674	1920	
4022	0	700	744	675	1904	
4023	0	699	745	673	1886	
4024	0	699	744	673	1898	
4025	0	698	744	674	1914	
4026	0	699	744	676	1905	
4027	0	701	744	675	1902	
4028	0	699	742	674	1890	
4029	0	700	742	674	1871	
4030	0	699	742	674	1861	
4031	0	700	743	672	1870	
4032	0	701	743	674	1873	
4033	0	700	742	673	1850	
4034	0	700	742	673	1843	
4035	0	699	741	672	1846	
4036	0	700	740	672	1855	
4037	0	700	741	672	1881	
4038	0	699	741	671	1906	
4039	0	699	741	671	1911	
4040	0	699	741	671	1920	
4041	0	698	739	671	1902	
4042	0	698	740	670	1891	
4043	0	698	741	671	1883	
4044	0	697	739	669	1868	
4045	0	696	739	669	1829	
4046	0	696	739	669	1804	
4047	0	696	739	669	1789	
4048	0	695	738	670	1787	
4049	0	695	738	668	1810	
4050	0	695	737	669	1857	
4051	0	694	735	669	1896	
4052	0	695	736	669	1908	
4053	0	693	735	670	1909	
4054	0	691	734	668	1872	
4055	0	692	734	669	1868	
4056	0	691	733	669	1884	
4057	0	689	733	669	1901	
4058	0	689	733	669	1869	
4059	0	690	733	670	1849	
4060	0	688	732	669	1784	
4061	0	688	732	668	1759	
4062	0	688	732	669	1793	
4063	0	687	731	668	1843	
4064	0	687	731	669	1885	
4065	0	686	731	669	1913	
4066	0	686	731	669	1935	
4067	0	687	731	669	1922	
4068	0	684	731	669	1903	
4069	0	684	730	668	1890	
4070	0	684	731	668	1871	
4071	0	684	731	668	1835	
4072	0	684	731	668	1830	
4073	0	683	732	669	1822	
4074	0	683	731	667	1836	
4075	0	683	731	668	1872	
4076	0	682	731	668	1916	
4077	0	682	731	668	1950	
4078	0	682	731	669	1980	
4079	0	683	731	668	1971	
4080	0	683	731	669	1916	
4081	0	683	730	669	1907	
4082	0	683	731	668	1909	
4083	0	681	732	669	1890	
4084	0	682	731	668	1891	
4085	0	682	731	668	1892	
4086	0	681	731	668	1870	
4087	0	682	731	667	1899	
4088	0	681	731	668	1939	
4089	0	682	731	667	1957	
4090	0	681	731	667	1970	
4091	0	682	731	667	1973	
4092	0	683	731	667	1955	
4093	0	683	732	667	1971	
4094	0	682	732	667	1991	
4095	0	682	733	667	1981	
4096	0	681	732	667	1993	
4097	0	683	731	667	1982	
4098	0	681	732	667	1941	
4099	0	681	732	666	1946	
4100	0	682	733	667	1974	
4101	0	681	731	667	1994	
4102	0	682	732	667	2027	
4103	0	681	733	667	2032	
4104	0	681	733	665	1996	
4105	0	682	733	666	2015	
4106	0	682	733	666	2037	
4107	0	683	732	666	2042	
4108	0	684	733	667	2041	
4109	0	683	733	665	2017	
4110	0	684	733	666	1984	
4111	0	684	732	665	1990	
4112	0	685	732	665	2023	
4113	0	684	734	665	2025	
4114	0	684	733	664	2015	
4115	0	685	734	664	2028	
4116	0	684	734	664	2033	
4117	0	685	734	664	2044	
4118	0	686	735	664	2067	
4119	0	686	734	663	2086	
4120	0	687	735	665	2080	
4121	0	686	735	664	2060	
4122	0	686	735	663	2051	
4123	0	686	735	663	2023	
4124	0	687	735	663	2020	
4125	0	687	736	662	2032	
4126	0	687	736	662	2026	
4127	0	687	737	663	2039	
4128	0	688	737	662	2028	
4129	0	688	737	663	2006	
4130	0	688	737	662	2040	
4131	0	689	738	662	2071	
4132	0	689	739	662	2078	
4133	0	688	739	662	2082	
4134	0	688	738	661	2050	
4135	0	689	739	660	2025	
4136	0	689	739	661	2051	
4137	0	690	739	662	2067	
4138	0	690	739	661	2058	
4139	0	690	738	661	2065	
4140	0	689	739	662	2013	
4141	0	689	739	662	1980	
4142	0	689	738	662	2007	
4143	0	690	739	663	2017	
4144	0	689	739	662	2020	
4145	0	688	739	662	2035	
4146	0	688	739	662	2011	
4147	0	690	739	663	2013	
4148	0	690	740	663	2021	
4149	0	689	739	661	1986	
4150	0	689	739	662	1971	
4151	0	690	739	663	1946	
4152	0	691	739	663	1877	
4153	0	690	740	663	1859	
4154	0	689	739	663	1845	
4155	0	689	739	663	1838	
4156	0	688	739	664	1854	
4157	0	688	739	663	1814	
4158	0	688	739	664	1790	
4159	0	688	739	663	1795	
4160	0	687	741	664	1765	
4161	0	687	741	665	1739	
4162	0	687	741	664	1706	
4163	0	686	741	664	1632	
4164	0	687	741	663	1608	
4165	0	686	742	664	1613	
4166	0	687	741	664	1630	
4167	0	687	741	665	1669	
4168	0	687	741	665	1669	
4169	0	687	740	664	1658	
4170	0	688	742	665	1682	
4171	0	686	742	665	1688	
4172	0	687	741	665	1721	
4173	0	686	741	666	1728	
4174	0	685	741	664	1713	
4175	0	684	742	665	1750	
4176	0	684	741	665	1793	
4177	0	685	741	665	1838	
4178	0	685	741	664	1897	
4179	0	685	741	663	1927	
4180	0	684	741	664	1989	
4181	0	686	742	665	2073	
4182	0	686	743	665	2164	
4183	0	685	743	666	2268	
4184	0	685	744	665	2326	
4185	0	683	743	665	2391	
4186	0	684	746	666	2460	
4187	0	686	746	666	2493	
4188	0	686	745	665	2501	
4189	0	684	745	665	2497	
4190	0	681	742	665	2479	
4191	0	678	742	666	2468	
4192	0	678	743	667	2450	
4193	0	678	743	666	2410	
4194	0	679	743	664	2368	
4195	0	678	744	665	2331	
4196	0	679	745	666	2323	
4197	0	677	744	665	2334	
4198	0	677	744	665	2339	
4199	0	677	743	664	2320	
4200	0	676	744	665	2272	
4201	0	678	744	667	2252	
4202	0	678	744	665	2258	
4203	0	678	744	664	2241	
4204	0	677	744	665	2206	
4205	0	677	744	664	2163	
4206	0	677	743	664	2167	
4207	0	678	743	666	2172	
4208	0	677	744	665	2191	
4209	0	678	744	665	2179	
4210	0	678	743	664	2147	
4211	0	677	743	664	2148	
4212	0	677	743	665	2161	
4213	0	673	742	666	2172	
4214	0	671	741	666	2155	
4215	0	669	742	667	2141	
4216	0	671	745	667	2161	
4217	0	673	742	666	2200	
4218	0	674	744	666	2229	
4219	0	673	744	664	2215	
4220	0	672	745	665	2171	
4221	0	674	746	663	2177	
4222	0	674	743	663	2214	
4223	0	675	745	664	2242	
4224	0	674	744	662	2212	
4225	0	673	745	663	2181	
4226	0	675	745	662	2192	
4227	0	675	742	662	2227	
4228	0	675	743	663	2267	
4229	0	673	742	662	2275	
4230	0	671	741	662	2270	
4231	0	671	741	661	2289	
4232	0	672	738	661	2314	
4233	0	671	739	661	2328	
4234	0	670	739	660	2304	
4235	0	670	739	661	2262	
4236	0	670	740	661	2255	
4237	0	670	739	661	2269	
4238	0	670	740	661	2295	
4239	0	670	739	660	2292	
4240	0	668	739	660	2263	
4241	0	669	739	659	2272	
4242	0	670	739	659	2289	
4243	0	669	738	659	2302	
4244	0	670	738	658	2292	
4245	0	669	738	658	2266	
4246	0	671	738	658	2271	
4247	0	672	738	658	2289	
4248	0	673	738	658	2300	
4249	0	673	738	658	2282	
4250	0	673	738	657	2237	
4251	0	675	737	657	2230	
4252	0	676	738	656	2246	
4253	0	675	737	656	2256	
4254	0	674	736	656	2245	
4255	0	674	737	656	2235	
4256	0	675	736	655	2250	
4257	0	676	736	656	2274	
4258	0	674	736	656	2289	
4259	0	675	736	655	2274	
4260	0	676	735	654	2227	
4261	0	676	735	654	2207	
4262	0	677	734	653	2207	
4263	0	675	734	653	2192	
4264	0	674	733	652	2160	
4265	0	674	732	652	2119	
4266	0	673	732	652	2127	
4267	0	674	732	651	2158	
4268	0	672	732	651	2181	
4269	0	671	731	650	2189	
4270	0	670	731	650	2175	
4271	0	670	730	649	2177	
4272	0	671	730	648	2191	
4273	0	670	730	648	2190	
4274	0	671	731	648	2173	
4275	0	672	731	647	2129	
4276	0	673	731	647	2111	
4277	0	674	731	646	2125	
4278	0	674	731	646	2137	
4279	0	675	731	645	2143	
4280	0	675	731	645	2113	
4281	0	675	731	645	2096	
4282	0	676	732	645	2110	
4283	0	675	733	645	2122	
4284	0	677	732	645	2122	
4285	0	675	732	645	2103	
4286	0	676	732	645	2079	
4287	0	677	732	644	2086	
4288	0	675	732	645	2099	
4289	0	673	732	644	2098	
4290	0	672	732	644	2063	
4291	0	673	732	643	1997	
4292	0	672	732	643	1955	
4293	0	671	732	643	1927	
4294	0	671	731	642	1907	
4295	0	671	731	642	1831	
4296	0	670	732	642	1801	
4297	0	670	732	642	1802	
4298	0	671	732	642	1792	
4299	0	671	732	641	1795	
4300	0	671	732	640	1751	
4301	0	672	731	641	1734	
4302	0	672	732	641	1737	
4303	0	672	732	640	1724	
4304	0	673	732	640	1746	
4305	0	672	732	639	1723	
4306	0	673	731	639	1715	
4307	0	674	732	639	1744	
4308	0	675	732	639	1766	
4309	0	675	731	639	1815	
4310	0	676	731	639	1833	
4311	0	676	732	638	1863	
4312	0	678	731	638	1904	
4313	0	678	731	638	1898	
4314	0	678	731	639	1910	
4315	0	677	732	639	1889	
4316	0	679	733	638	1854	
4317	0	678	731	638	1845	
4318	0	678	732	638	1831	
4319	0	678	731	637	1841	
4320	0	677	732	637	1818	
4321	0	681	732	637	1784	
4322	0	681	732	636	1779	
4323	0	679	732	636	1775	
4324	0	679	733	636	1794	
4325	0	679	733	635	1799	
4326	0	680	734	635	1786	
4327	0	680	734	635	1771	
4328	0	678	735	635	1768	
4329	0	678	735	635	1758	
4330	0	678	735	635	1750	
4331	0	680	735	634	1734	
4332	0	679	735	634	1719	
4333	0	678	736	634	1730	
4334	0	677	736	634	1743	
4335	0	678	737	634	1757	
4336	0	679	737	634	1747	
4337	0	677	737	634	1741	
4338	0	678	737	634	1773	
4339	0	676	738	634	1781	
4340	0	677	738	634	1786	
4341	0	678	737	634	1768	
4342	0	677	738	634	1736	
4343	0	677	739	635	1725	
4344	0	677	738	634	1707	
4345	0	678	738	634	1710	
4346	0	679	738	634	1684	
4347	0	678	739	634	1667	
4348	0	678	738	635	1692	
4349	0	678	739	635	1709	
4350	0	679	740	635	1743	
4351	0	679	740	635	1744	
4352	0	679	741	634	1728	
4353	0	679	741	635	1707	
4354	0	678	740	635	1654	
4355	0	678	740	635	1638	
4356	0	679	740	635	1621	
4357	0	680	741	635	1614	
4358	0	678	740	635	1630	
4359	0	678	741	634	1656	
4360	0	679	741	635	1687	
4361	0	679	741	635	1694	
4362	0	679	741	634	1674	
4363	0	678	740	634	1663	
4364	0	678	740	635	1679	
4365	0	678	739	635	1688	
4366	0	679	739	634	1695	
4367	0	680	740	633	1683	
4368	0	678	740	635	1679	
4369	0	678	741	634	1686	
4370	0	678	741	633	1690	
4371	0	679	742	633	1699	
4372	0	678	742	633	1676	
4373	0	678	742	633	1646	
4374	0	677	742	633	1644	
4375	0	677	742	634	1638	
4376	0	679	742	635	1665	
4377	0	679	742	634	1667	
4378	0	679	741	635	1676	
4379	0	678	742	635	1703	
4380	0	678	741	635	1707	
4381	0	679	741	635	1716	
4382	0	678	741	634	1686	
4383	0	678	740	634	1647	
4384	0	678	740	633	1645	
4385	0	678	740	634	1641	
4386	0	679	740	634	1653	
4387	0	680	740	633	1659	
4388	0	679	740	634	1659	
4389	0	679	740	633	1667	
4390	0	679	739	633	1689	
4391	0	679	739	632	1718	
4392	0	680	739	631	1744	
4393	0	678	739	631	1728	
4394	0	679	741	630	1696	
4395	0	679	741	630	1681	
4396	0	681	741	630	1672	
4397	0	681	742	629	1686	
4398	0	679	740	629	1659	
4399	0	680	741	628	1636	
4400	0	680	742	628	1643	
4401	0	681	742	628	1655	
4402	0	682	741	629	1690	
4403	0	682	740	629	1681	
4404	0	682	742	628	1678	
4405	0	682	742	628	1699	
4406	0	684	741	627	1705	
4407	0	683	741	627	1732	
4408	0	682	741	627	1721	
4409	0	683	741	627	1692	
4410	0	683	742	626	1694	
4411	0	683	742	625	1713	
4412	0	683	743	624	1735	
4413	0	682	742	624	1733	
4414	0	683	742	623	1704	
4415	0	683	743	623	1693	
4416	0	682	742	623	1724	
4417	0	684	743	621	1753	
4418	0	683	742	621	1780	
4419	0	683	742	622	1785	
4420	0	683	742	622	1785	
4421	0	684	742	621	1789	
4422	0	685	742	620	1772	
4423	0	683	741	620	1770	
4424	0	684	741	619	1758	
4425	0	684	741	619	1734	
4426	0	684	741	618	1739	
4427	0	685	741	617	1734	
4428	0	685	740	617	1761	
4429	0	686	740	617	1765	
4430	0	685	740	617	1778	
4431	0	687	739	615	1811	
4432	0	686	740	614	1838	
4433	0	685	740	614	1871	
4434	0	687	740	614	1843	
4435	0	687	739	613	1806	
4436	0	688	739	612	1785	
4437	0	688	739	612	1773	
4438	0	686	738	610	1799	
4439	0	688	738	610	1801	
4440	0	689	738	609	1795	
4441	0	688	738	608	1815	
4442	0	690	739	608	1845	
4443	0	691	738	608	1885	
4444	0	690	737	607	1886	
4445	0	691	738	607	1869	
4446	0	692	737	604	1850	
4447	0	692	738	605	1847	
4448	0	692	736	605	1854	
4449	0	692	735	603	1861	
4450	0	692	735	604	1864	
4451	0	693	735	603	1868	
4452	0	692	735	603	1893	
4453	0	693	734	603	1899	
4454	0	694	733	602	1905	
4455	0	695	734	602	1886	
4456	0	696	734	601	1856	
4457	0	696	734	601	1885	
4458	0	697	732	601	1908	
4459	0	697	732	600	1935	
4460	0	697	732	600	1925	
4461	0	699	734	598	1910	
4462	0	699	732	598	1925	
4463	0	700	732	598	1942	
4464	0	699	731	597	1969	
4465	0	700	731	597	1970	
4466	0	701	731	596	1957	
4467	0	701	731	596	1967	
4468	0	701	731	597	1969	
4469	0	702	730	596	1978	
4470	0	702	730	596	1974	
4471	0	702	730	595	1969	
4472	0	703	730	596	1993	
4473	0	703	730	595	2009	
4474	0	704	731	596	2040	
4475	0	703	730	594	2051	
4476	0	703	730	594	2051	
4477	0	704	730	595	2048	
4478	0	703	730	595	2058	
4479	0	705	730	595	2060	
4480	0	705	729	594	2047	
4481	0	705	729	593	2025	
4482	0	706	729	594	2013	
4483	0	706	728	594	2030	
4484	0	706	729	594	2057	
4485	0	707	730	595	2097	
4486	0	708	730	594	2104	
4487	0	709	729	594	2103	
4488	0	709	729	594	2112	
4489	0	710	729	594	2106	
4490	0	709	729	595	2094	
4491	0	709	729	595	2085	
4492	0	710	730	595	2067	
4493	0	711	729	596	2071	
4494	0	712	729	596	2077	
4495	0	712	730	596	2099	
4496	0	712	729	596	2114	
4497	0	713	730	597	2138	
4498	0	713	730	597	2162	
4499	0	714	729	597	2195	
4500	0	714	729	598	2188	
4501	0	715	729	597	2176	
4502	0	714	728	599	2159	
4503	0	716	729	599	2138	
4504	0	716	729	599	2122	
4505	0	717	729	600	2135	
4506	0	718	729	599	2120	
4507	0	719	730	600	2135	
4508	0	720	730	601	2146	
4509	0	720	729	600	2151	
4510	0	720	729	601	2167	
4511	0	721	730	601	2178	
4512	0	722	730	602	2189	
4513	0	722	729	603	2196	
4514	0	723	730	603	2214	
4515	0	724	730	603	2242	
4516	0	725	730	603	2239	
4517	0	726	730	604	2209	
4518	0	725	730	604	2182	
4519	0	727	730	605	2167	
4520	0	726	730	605	2167	
4521	0	728	729	605	2181	
4522	0	729	731	607	2210	
4523	0	729	730	608	2222	
4524	0	729	729	609	2225	
4525	0	729	730	610	2247	
4526	0	730	730	610	2257	
4527	0	730	731	611	2269	
4528	0	730	730	612	2250	
4529	0	729	730	612	2209	
4530	0	730	729	613	2180	
4531	0	730	731	613	2157	
4532	0	730	730	615	2168	
4533	0	730	730	616	2185	
4534	0	730	730	615	2216	
4535	0	731	732	617	2253	
4536	0	732	732	616	2274	
4537	0	734	732	618	2276	
4538	0	737	732	618	2268	
4539	0	740	733	619	2252	
4540	0	741	733	619	2217	
4541	0	742	734	620	2169	
4542	0	744	734	622	2127	
4543	0	744	733	622	2099	
4544	0	744	735	623	2088	
4545	0	746	735	624	2096	
4546	0	746	734	625	2117	
4547	0	746	735	625	2148	
4548	0	746	735	627	2178	
4549	0	746	735	628	2200	
4550	0	746	734	629	2210	
4551	0	745	734	631	2200	
4552	0	745	735	632	2171	
4553	0	744	734	632	2130	
4554	0	744	735	633	2093	
4555	0	744	735	633	2073	
4556	0	744	735	634	2091	
4557	0	744	737	634	2135	
4558	0	744	736	635	2181	
4559	0	744	736	636	2222	
4560	0	745	737	637	2253	
4561	0	746	737	639	2270	
4562	0	746	737	639	2269	
4563	0	745	737	639	2252	
4564	0	745	737	639	2222	
4565	0	745	737	640	2205	
4566	0	746	738	641	2225	
4567	0	746	738	642	2242	
4568	0	747	737	642	2239	
4569	0	747	738	642	2214	
4570	0	748	739	644	2185	
4571	0	748	739	644	2178	
4572	0	748	737	645	2201	
4573	0	748	738	646	2219	
4574	0	748	739	647	2235	
4575	0	748	738	648	2247	
4576	0	748	738	648	2248	
4577	0	748	740	649	2264	
4578	0	747	740	649	2280	
4579	0	748	740	651	2271	
4580	0	747	739	651	2214	
4581	0	746	740	652	2134	
4582	0	746	741	652	2092	
4583	0	746	740	653	2107	
4584	0	747	741	653	2114	
4585	0	746	740	653	2111	
4586	0	748	741	653	2097	
4587	0	747	742	655	2095	
4588	0	747	743	656	2126	
4589	0	747	743	656	2156	
4590	0	747	743	658	2163	
4591	0	747	744	657	2139	
4592	0	748	744	659	2094	
4593	0	747	743	659	2059	
4594	0	748	743	659	2070	
4595	0	749	744	661	2082	
4596	0	749	744	660	2062	
4597	0	750	744	662	2007	
4598	0	749	743	662	1957	
4599	0	751	743	662	1980	
4600	0	751	742	663	2022	
4601	0	752	743	665	2040	
4602	0	753	743	665	2048	
4603	0	753	742	664	2041	
4604	0	753	741	665	2045	
4605	0	754	741	665	2073	
4606	0	754	742	666	2087	
4607	0	755	741	666	2067	
4608	0	754	742	666	2006	
4609	0	756	742	666	1954	
4610	0	756	742	665	1953	
4611	0	755	743	667	1977	
4612	0	756	743	667	1988	
4613	0	754	743	666	1973	
4614	0	755	743	665	1946	
4615	0	755	742	665	1966	
4616	0	755	743	666	2013	
4617	0	755	743	666	2046	
4618	0	754	744	666	2067	
4619	0	754	744	666	2041	
4620	0	755	744	666	1993	
4621	0	755	744	666	1975	
4622	0	755	744	666	1978	
4623	0	755	744	666	1961	
4624	0	755	744	666	1902	
4625	0	755	743	665	1851	
4626	0	755	744	664	1851	
4627	0	754	745	664	1910	
4628	0	754	744	665	1971	
4629	0	755	745	665	2003	
4630	0	755	744	667	1995	
4631	0	756	745	666	1977	
4632	0	755	745	665	1995	
4633	0	754	745	665	2010	
