# OpenSignals Text File Format. Version 1
# {"00:07:80:4C:2A:F7": {"position": 0, "device": "bioplux", 
"device name": "00:07:80:4C:2A:F7", "device connection": 
"BTH00:07:80:4C:2A:F7", "sampling rate": 1000, 
"resolution": [12, 12, 12, 12], "firmware version": 512, 
"comments": "", "keywords": "", "mode": 0, "sync interval": 2, 
"date": "2024-5-2", "time": "18:57:7.852", "channels": [1, 2, 3, 4], "sensor": ["XYZ", "XYZ", "XYZ", "ECG"], "label": ["x", "y", "z", "ECG"], "column": ["nSeq", "DI", "x", "y", "z", "ECG"], "special": [{}, {}, {}, {}], "digital IO": [0, 1], "convertedValues": 0}}
# EndOfHeader
0	0	769	728	633	2076	
1	0	769	727	633	2076	
2	0	770	727	633	2076	
3	0	770	727	632	2071	
4	0	769	727	633	2070	
5	0	770	728	634	2067	
6	0	769	727	633	2067	
7	0	770	727	633	2066	
8	0	770	727	633	2068	
9	0	772	728	634	2072	
10	0	770	727	634	2076	
11	0	770	728	633	2081	
12	0	771	728	633	2080	
13	0	771	727	633	2074	
14	0	770	727	633	2065	
15	0	770	728	635	2058	
16	0	770	727	633	2053	
17	0	770	727	633	2053	
18	0	769	729	633	2059	
19	0	769	728	634	2064	
20	0	770	728	634	2068	
21	0	771	727	634	2072	
22	0	769	728	633	2070	
23	0	769	728	633	2072	
24	0	768	727	633	2070	
25	0	770	727	635	2068	
26	0	771	728	634	2070	
27	0	770	727	633	2066	
28	0	770	727	633	2065	
29	0	770	727	633	2061	
30	0	770	728	634	2063	
31	0	769	728	633	2064	
32	0	770	727	633	2064	
33	0	770	727	632	2065	
34	0	769	728	634	2061	
35	0	769	728	633	2057	
36	0	770	727	633	2053	
37	0	771	727	633	2048	
38	0	769	727	633	2051	
39	0	768	728	634	2055	
40	0	769	727	635	2058	
41	0	768	727	633	2059	
42	0	769	728	633	2060	
43	0	768	728	633	2061	
44	0	769	727	634	2064	
45	0	769	728	634	2065	
46	0	769	728	634	2070	
47	0	769	727	633	2068	
48	0	769	727	633	2059	
49	0	769	728	633	2059	
50	0	770	728	634	2058	
51	0	769	727	633	2058	
52	0	769	727	633	2057	
53	0	769	727	633	2056	
54	0	769	727	634	2057	
55	0	770	727	635	2058	
56	0	770	728	633	2060	
57	0	769	728	633	2061	
58	0	768	728	633	2064	
59	0	769	727	633	2062	
60	0	769	728	634	2054	
61	0	769	727	633	2044	
62	0	770	728	633	2039	
63	0	769	730	633	2037	
64	0	768	727	633	2038	
65	0	769	728	633	2040	
66	0	771	728	633	2046	
67	0	770	728	634	2046	
68	0	771	727	633	2046	
69	0	770	728	633	2047	
70	0	770	728	633	2047	
71	0	770	727	633	2045	
72	0	770	728	634	2045	
73	0	769	728	633	2044	
74	0	771	728	633	2046	
75	0	771	728	634	2047	
76	0	770	727	633	2038	
77	0	770	728	633	2025	
78	0	769	727	632	2018	
79	0	770	728	636	2012	
80	0	769	727	633	2017	
81	0	770	728	634	2024	
82	0	769	727	634	2027	
83	0	770	727	633	2033	
84	0	770	728	634	2028	
85	0	769	728	634	2026	
86	0	769	728	634	2025	
87	0	769	727	634	2021	
88	0	768	727	634	2012	
89	0	769	728	634	2009	
90	0	769	729	634	2012	
91	0	768	728	633	2013	
92	0	769	729	634	2015	
93	0	770	728	633	2014	
94	0	768	728	633	2015	
95	0	769	728	635	2022	
96	0	770	727	634	2027	
97	0	770	728	635	2034	
98	0	770	728	635	2038	
99	0	770	727	634	2042	
100	0	770	727	634	2043	
101	0	770	728	635	2042	
102	0	771	730	634	2038	
103	0	770	727	632	2040	
104	0	770	728	635	2040	
105	0	768	728	635	2043	
106	0	769	728	634	2047	
107	0	770	730	634	2047	
108	0	770	727	633	2048	
109	0	769	728	635	2048	
110	0	769	728	635	2049	
111	0	770	728	634	2049	
112	0	770	728	634	2041	
113	0	770	728	634	2033	
114	0	770	727	635	2030	
115	0	769	728	635	2032	
116	0	770	728	634	2033	
117	0	769	727	634	2030	
118	0	769	727	634	2028	
119	0	769	727	635	2030	
120	0	769	727	635	2034	
121	0	770	727	634	2036	
122	0	770	728	634	2035	
123	0	770	728	634	2034	
124	0	769	728	634	2033	
125	0	770	728	636	2032	
126	0	770	728	634	2035	
127	0	771	727	634	2037	
128	0	769	728	634	2042	
129	0	770	727	635	2044	
130	0	769	728	635	2047	
131	0	769	727	634	2053	
132	0	769	727	635	2058	
133	0	769	727	633	2064	
134	0	771	728	635	2067	
135	0	769	728	635	2067	
136	0	769	727	635	2070	
137	0	770	728	635	2071	
138	0	770	726	635	2069	
139	0	769	727	635	2069	
140	0	770	728	635	2072	
141	0	769	727	634	2073	
142	0	770	728	634	2075	
143	0	771	727	634	2074	
144	0	770	728	634	2076	
145	0	770	728	635	2078	
146	0	769	728	634	2076	
147	0	770	728	635	2079	
148	0	770	729	635	2077	
149	0	771	728	635	2083	
150	0	770	728	635	2088	
151	0	769	727	635	2087	
152	0	769	727	635	2075	
153	0	770	727	633	2065	
154	0	771	729	635	2054	
155	0	770	728	634	2046	
156	0	771	728	635	2048	
157	0	770	727	634	2049	
158	0	770	727	633	2056	
159	0	771	728	635	2064	
160	0	770	727	635	2073	
161	0	770	728	635	2084	
162	0	770	727	634	2091	
163	0	770	727	634	2095	
164	0	771	728	635	2100	
165	0	770	729	635	2103	
166	0	770	728	635	2099	
167	0	770	728	635	2096	
168	0	771	727	634	2091	
169	0	769	728	634	2085	
170	0	770	729	635	2083	
171	0	769	728	634	2082	
172	0	769	728	634	2085	
173	0	770	727	632	2092	
174	0	770	729	634	2092	
175	0	769	728	635	2089	
176	0	769	728	634	2086	
177	0	770	728	635	2084	
178	0	770	728	634	2073	
179	0	771	727	634	2061	
180	0	770	728	635	2050	
181	0	769	728	634	2038	
182	0	770	729	635	2036	
183	0	770	729	633	2034	
184	0	770	728	634	2038	
185	0	770	728	634	2045	
186	0	769	728	634	2053	
187	0	769	728	634	2065	
188	0	770	728	632	2078	
189	0	771	729	635	2080	
190	0	769	728	634	2085	
191	0	771	728	634	2094	
192	0	770	728	634	2101	
193	0	770	728	634	2111	
194	0	770	729	634	2116	
195	0	770	728	634	2114	
196	0	770	727	633	2111	
197	0	771	728	634	2110	
198	0	771	728	634	2099	
199	0	770	728	634	2090	
200	0	770	729	634	2081	
201	0	769	727	633	2065	
202	0	770	729	634	2056	
203	0	770	727	634	2046	
204	0	771	728	633	2034	
205	0	769	728	634	2017	
206	0	770	728	633	1997	
207	0	769	728	633	1976	
208	0	769	727	634	1962	
209	0	769	727	635	1948	
210	0	769	728	635	1936	
211	0	769	727	633	1930	
212	0	770	728	633	1924	
213	0	769	728	633	1919	
214	0	768	728	634	1915	
215	0	769	728	634	1909	
216	0	769	727	633	1902	
217	0	769	728	634	1893	
218	0	769	728	634	1892	
219	0	768	728	634	1902	
220	0	768	729	635	1915	
221	0	769	728	633	1930	
222	0	769	728	633	1945	
223	0	769	728	633	1962	
224	0	769	728	633	1982	
225	0	770	728	634	2002	
226	0	770	727	633	2015	
227	0	770	727	633	2027	
228	0	769	728	633	2042	
229	0	770	728	634	2052	
230	0	769	729	634	2059	
231	0	770	729	634	2070	
232	0	769	728	634	2078	
233	0	770	728	634	2092	
234	0	770	728	634	2117	
235	0	769	728	635	2156	
236	0	770	728	634	2196	
237	0	769	728	634	2234	
238	0	769	728	634	2279	
239	0	768	728	633	2324	
240	0	769	729	634	2370	
241	0	770	728	633	2410	
242	0	769	728	634	2440	
243	0	769	728	634	2461	
244	0	770	728	633	2472	
245	0	769	729	633	2472	
246	0	769	728	632	2463	
247	0	769	728	633	2450	
248	0	770	728	633	2438	
249	0	770	728	633	2420	
250	0	770	728	634	2398	
251	0	771	728	632	2375	
252	0	770	728	632	2351	
253	0	770	728	632	2328	
254	0	770	728	633	2306	
255	0	771	728	633	2284	
256	0	772	729	633	2258	
257	0	772	728	632	2231	
258	0	770	728	633	2201	
259	0	771	728	632	2178	
260	0	770	728	633	2157	
261	0	770	729	633	2139	
262	0	770	728	633	2120	
263	0	770	728	632	2107	
264	0	771	728	633	2093	
265	0	770	728	633	2085	
266	0	772	729	633	2079	
267	0	771	728	633	2072	
268	0	771	728	633	2067	
269	0	772	727	633	2061	
270	0	772	728	633	2058	
271	0	771	728	632	2051	
272	0	772	728	634	2051	
273	0	773	728	633	2047	
274	0	771	727	633	2047	
275	0	769	728	634	2046	
276	0	767	727	633	2044	
277	0	767	729	634	2045	
278	0	767	729	632	2040	
279	0	767	728	633	2037	
280	0	767	729	634	2037	
281	0	766	729	633	2035	
282	0	767	730	634	2035	
283	0	767	729	633	2030	
284	0	766	728	633	2028	
285	0	766	730	634	2029	
286	0	767	729	632	2027	
287	0	768	730	634	2027	
288	0	768	731	633	2019	
289	0	769	729	633	2010	
290	0	770	730	634	2001	
291	0	769	729	633	1997	
292	0	771	729	635	2000	
293	0	771	729	635	2005	
294	0	772	728	634	2014	
295	0	772	729	634	2021	
296	0	772	728	633	2025	
297	0	773	729	634	2026	
298	0	773	729	633	2019	
299	0	774	728	634	2014	
300	0	774	728	633	2014	
301	0	774	728	634	2014	
302	0	774	727	633	2014	
303	0	773	727	634	2017	
304	0	773	727	634	2018	
305	0	772	727	634	2018	
306	0	772	728	635	2019	
307	0	771	728	634	2020	
308	0	770	727	635	2026	
309	0	770	727	635	2024	
310	0	769	728	634	2024	
311	0	768	727	634	2024	
312	0	768	728	634	2023	
313	0	769	728	634	2023	
314	0	769	729	635	2022	
315	0	768	729	635	2019	
316	0	769	728	633	2016	
317	0	769	728	634	2013	
318	0	770	729	634	2009	
319	0	770	728	635	2010	
320	0	770	728	635	2007	
321	0	769	728	633	2008	
322	0	769	729	634	2008	
323	0	768	728	634	2007	
324	0	769	728	635	2005	
325	0	768	728	635	2003	
326	0	768	727	634	2005	
327	0	767	728	635	2005	
328	0	768	729	634	2008	
329	0	768	728	635	2010	
330	0	769	728	635	2013	
331	0	769	728	634	2014	
332	0	769	728	634	2016	
333	0	769	728	634	2017	
334	0	770	727	634	2017	
335	0	770	728	635	2019	
336	0	769	727	634	2018	
337	0	769	727	634	2020	
338	0	771	727	634	2022	
339	0	771	728	634	2022	
340	0	771	728	634	2022	
341	0	772	728	634	2023	
342	0	772	728	633	2021	
343	0	772	728	633	2019	
344	0	773	728	634	2019	
345	0	772	728	634	2022	
346	0	772	728	633	2021	
347	0	772	728	633	2015	
348	0	771	728	634	2009	
349	0	772	728	634	1998	
350	0	772	728	634	1997	
351	0	773	729	634	1998	
352	0	772	728	634	1996	
353	0	772	728	634	1996	
354	0	773	729	634	1993	
355	0	771	729	634	1992	
356	0	773	729	635	1993	
357	0	772	729	633	1994	
358	0	772	730	633	1996	
359	0	772	729	634	2002	
360	0	770	730	634	2008	
361	0	770	730	633	2010	
362	0	770	730	633	2014	
363	0	772	730	633	2017	
364	0	772	730	635	2018	
365	0	773	730	634	2019	
366	0	772	729	633	2018	
367	0	772	730	634	2021	
368	0	773	731	634	2024	
369	0	773	729	633	2022	
370	0	772	730	634	2017	
371	0	772	729	632	2010	
372	0	772	729	632	2009	
373	0	772	729	633	2011	
374	0	772	729	633	2009	
375	0	772	729	633	2001	
376	0	771	729	632	1995	
377	0	771	729	632	1989	
378	0	772	729	633	1988	
379	0	771	729	633	1993	
380	0	771	729	633	1999	
381	0	771	729	632	2002	
382	0	772	729	632	2003	
383	0	772	729	633	2006	
384	0	773	729	633	2008	
385	0	772	729	633	2012	
386	0	772	729	632	2013	
387	0	772	729	633	2013	
388	0	772	729	633	2008	
389	0	771	729	633	1998	
390	0	771	729	634	1991	
391	0	772	729	632	1988	
392	0	772	729	633	1987	
393	0	772	729	633	1987	
394	0	772	729	633	1986	
395	0	771	729	633	1990	
396	0	770	729	632	1996	
397	0	771	729	633	2000	
398	0	771	729	633	2006	
399	0	771	730	633	2006	
400	0	771	729	633	2003	
401	0	770	729	632	2000	
402	0	770	730	633	2005	
403	0	772	729	633	2007	
404	0	772	728	633	2013	
405	0	771	730	633	2019	
406	0	771	729	632	2022	
407	0	770	730	633	2029	
408	0	774	729	633	2035	
409	0	772	728	633	2037	
410	0	772	730	633	2038	
411	0	772	730	633	2033	
412	0	772	729	633	2030	
413	0	772	729	633	2027	
414	0	771	728	633	2024	
415	0	772	730	634	2027	
416	0	771	728	633	2025	
417	0	770	729	634	2026	
418	0	772	731	633	2015	
419	0	772	728	633	2004	
420	0	772	729	633	1994	
421	0	771	729	633	1985	
422	0	771	729	633	1981	
423	0	771	728	634	1983	
424	0	772	729	634	1986	
425	0	771	728	633	1985	
426	0	772	729	634	1984	
427	0	771	728	633	1979	
428	0	771	728	634	1979	
429	0	772	729	634	1980	
430	0	771	729	633	1979	
431	0	772	729	633	1981	
432	0	771	728	633	1982	
433	0	772	728	634	1983	
434	0	772	726	634	1984	
435	0	773	728	634	1984	
436	0	772	728	633	1987	
437	0	771	727	633	1987	
438	0	772	728	633	1987	
439	0	773	727	633	1984	
440	0	772	728	633	1981	
441	0	771	728	633	1978	
442	0	771	727	633	1974	
443	0	772	728	632	1971	
444	0	773	728	633	1967	
445	0	772	729	633	1964	
446	0	772	728	632	1964	
447	0	773	727	633	1968	
448	0	772	727	633	1979	
449	0	774	728	633	1987	
450	0	772	728	634	1987	
451	0	771	727	633	1981	
452	0	771	727	633	1968	
453	0	772	728	633	1962	
454	0	772	728	633	1963	
455	0	772	728	633	1968	
456	0	771	727	633	1977	
457	0	771	728	633	1986	
458	0	772	728	633	1992	
459	0	772	729	633	1997	
460	0	773	729	634	1999	
461	0	772	728	632	1995	
462	0	771	728	633	1992	
463	0	772	728	633	1990	
464	0	772	728	633	1987	
465	0	771	729	633	1982	
466	0	772	729	633	1973	
467	0	772	729	632	1959	
468	0	771	729	633	1949	
469	0	772	730	633	1941	
470	0	771	729	633	1935	
471	0	771	730	633	1935	
472	0	771	729	632	1937	
473	0	772	728	633	1946	
474	0	771	729	634	1952	
475	0	772	729	633	1959	
476	0	771	728	633	1959	
477	0	771	729	633	1959	
478	0	772	729	633	1961	
479	0	771	729	633	1966	
480	0	771	730	633	1973	
481	0	771	729	633	1978	
482	0	770	729	633	1980	
483	0	770	729	633	1975	
484	0	772	729	632	1964	
485	0	771	730	633	1949	
486	0	772	729	633	1941	
487	0	772	729	633	1939	
488	0	772	730	633	1942	
489	0	774	729	633	1950	
490	0	772	729	634	1960	
491	0	771	729	633	1964	
492	0	772	729	633	1965	
493	0	772	729	633	1964	
494	0	772	729	633	1963	
495	0	771	729	633	1961	
496	0	771	729	633	1957	
497	0	771	729	633	1955	
498	0	770	729	633	1951	
499	0	771	729	633	1943	
500	0	771	728	634	1929	
501	0	770	729	633	1911	
502	0	771	729	634	1896	
503	0	771	729	633	1891	
504	0	772	730	634	1896	
505	0	772	729	634	1907	
506	0	770	729	634	1924	
507	0	771	729	633	1941	
508	0	772	729	633	1957	
509	0	772	729	633	1965	
510	0	771	729	633	1965	
511	0	771	729	633	1954	
512	0	771	729	633	1937	
513	0	772	729	633	1923	
514	0	771	728	633	1919	
515	0	772	728	633	1926	
516	0	771	729	633	1936	
517	0	771	729	633	1941	
518	0	772	728	633	1947	
519	0	772	729	632	1954	
520	0	771	728	633	1969	
521	0	771	729	633	1985	
522	0	771	729	633	1999	
523	0	772	729	633	2004	
524	0	772	729	633	2003	
525	0	772	728	634	1999	
526	0	771	729	633	1993	
527	0	771	729	633	1988	
528	0	772	729	634	1984	
529	0	772	729	634	1980	
530	0	772	729	633	1972	
531	0	772	729	633	1968	
532	0	771	729	633	1967	
533	0	772	728	634	1966	
534	0	772	728	633	1969	
535	0	772	729	633	1977	
536	0	771	729	633	1982	
537	0	770	730	633	1988	
538	0	772	730	636	1990	
539	0	771	729	633	1993	
540	0	771	728	634	1995	
541	0	771	730	634	1997	
542	0	771	729	634	1996	
543	0	771	729	633	2003	
544	0	772	729	634	2012	
545	0	770	728	633	2021	
546	0	772	729	633	2031	
547	0	771	729	632	2039	
548	0	770	729	633	2049	
549	0	770	729	633	2056	
550	0	771	728	633	2058	
551	0	770	729	632	2058	
552	0	770	728	633	2058	
553	0	771	729	633	2061	
554	0	772	729	633	2066	
555	0	771	728	633	2067	
556	0	772	729	633	2067	
557	0	771	729	632	2064	
558	0	771	729	633	2060	
559	0	772	729	633	2060	
560	0	770	728	633	2061	
561	0	771	729	633	2063	
562	0	771	728	633	2063	
563	0	770	728	633	2065	
564	0	771	729	633	2070	
565	0	770	728	633	2071	
566	0	772	729	633	2078	
567	0	770	728	632	2079	
568	0	771	729	633	2082	
569	0	772	729	633	2085	
570	0	770	728	632	2086	
571	0	772	729	633	2088	
572	0	771	728	632	2087	
573	0	771	728	632	2088	
574	0	771	729	633	2094	
575	0	771	728	632	2098	
576	0	772	729	632	2104	
577	0	772	728	632	2104	
578	0	772	729	632	2100	
579	0	772	729	633	2099	
580	0	770	728	632	2094	
581	0	772	729	633	2094	
582	0	771	729	632	2092	
583	0	772	729	632	2096	
584	0	772	729	632	2100	
585	0	771	728	632	2102	
586	0	772	729	633	2106	
587	0	772	729	632	2107	
588	0	771	728	632	2111	
589	0	771	729	632	2113	
590	0	772	729	632	2115	
591	0	771	729	632	2113	
592	0	771	729	632	2112	
593	0	772	731	631	2106	
594	0	772	730	631	2104	
595	0	772	729	632	2105	
596	0	771	728	632	2104	
597	0	771	729	633	2110	
598	0	771	729	634	2113	
599	0	771	729	632	2120	
600	0	771	729	633	2125	
601	0	770	728	632	2124	
602	0	770	729	632	2124	
603	0	772	731	632	2121	
604	0	772	729	632	2121	
605	0	772	730	633	2125	
606	0	771	729	632	2125	
607	0	771	730	633	2128	
608	0	773	730	633	2125	
609	0	773	730	632	2125	
610	0	772	728	632	2125	
611	0	771	729	632	2122	
612	0	771	729	635	2117	
613	0	772	729	632	2112	
614	0	772	727	632	2105	
615	0	771	728	632	2100	
616	0	771	729	632	2094	
617	0	771	729	632	2092	
618	0	771	729	632	2092	
619	0	771	728	633	2096	
620	0	771	728	632	2099	
621	0	771	729	632	2099	
622	0	771	729	632	2102	
623	0	772	729	632	2106	
624	0	772	727	633	2112	
625	0	771	728	633	2116	
626	0	771	729	633	2116	
627	0	770	729	633	2113	
628	0	770	730	632	2112	
629	0	770	728	634	2112	
630	0	770	728	634	2113	
631	0	769	729	633	2111	
632	0	769	730	633	2114	
633	0	769	729	632	2113	
634	0	771	728	633	2115	
635	0	770	729	633	2120	
636	0	771	729	633	2124	
637	0	772	729	633	2128	
638	0	774	729	632	2126	
639	0	775	730	633	2125	
640	0	775	729	633	2119	
641	0	776	730	633	2114	
642	0	776	730	633	2113	
643	0	776	730	635	2109	
644	0	776	730	633	2108	
645	0	776	729	634	2111	
646	0	775	729	633	2110	
647	0	774	729	634	2114	
648	0	774	729	634	2112	
649	0	772	730	634	2110	
650	0	773	729	634	2111	
651	0	770	728	634	2107	
652	0	770	729	634	2108	
653	0	771	729	634	2109	
654	0	772	730	635	2112	
655	0	771	729	634	2110	
656	0	772	730	635	2110	
657	0	770	730	634	2107	
658	0	772	730	634	2108	
659	0	771	730	635	2110	
660	0	769	730	634	2109	
661	0	771	731	635	2109	
662	0	771	730	634	2106	
663	0	770	730	635	2105	
664	0	771	729	634	2105	
665	0	771	729	634	2105	
666	0	771	730	634	2103	
667	0	772	730	635	2105	
668	0	773	730	634	2102	
669	0	773	731	635	2102	
670	0	774	730	635	2102	
671	0	773	729	636	2100	
672	0	773	729	635	2101	
673	0	773	729	635	2100	
674	0	773	730	635	2099	
675	0	774	729	635	2100	
676	0	774	728	635	2099	
677	0	774	728	637	2100	
678	0	774	728	635	2096	
679	0	775	728	636	2097	
680	0	773	727	636	2098	
681	0	773	728	635	2096	
682	0	773	729	636	2096	
683	0	774	729	634	2092	
684	0	775	727	635	2091	
685	0	774	728	635	2091	
686	0	774	728	635	2089	
687	0	774	729	636	2091	
688	0	774	729	635	2088	
689	0	774	729	635	2090	
690	0	774	728	635	2091	
691	0	774	729	635	2090	
692	0	774	729	635	2089	
693	0	774	729	635	2092	
694	0	775	729	636	2093	
695	0	772	727	635	2091	
696	0	774	729	636	2093	
697	0	773	729	635	2089	
698	0	774	729	634	2086	
699	0	775	729	635	2085	
700	0	774	729	635	2084	
701	0	775	730	635	2084	
702	0	774	729	635	2082	
703	0	774	728	635	2082	
704	0	774	729	635	2082	
705	0	774	729	636	2083	
706	0	773	728	635	2078	
707	0	773	728	635	2077	
708	0	773	729	635	2080	
709	0	774	729	635	2078	
710	0	774	729	635	2081	
711	0	774	729	634	2080	
712	0	773	728	634	2080	
713	0	773	729	634	2082	
714	0	773	729	635	2084	
715	0	772	728	634	2087	
716	0	773	729	634	2083	
717	0	773	729	635	2081	
718	0	774	730	635	2070	
719	0	775	729	634	2066	
720	0	775	730	635	2065	
721	0	774	729	634	2064	
722	0	774	729	634	2070	
723	0	775	729	633	2070	
724	0	774	729	634	2073	
725	0	774	728	634	2078	
726	0	773	728	634	2075	
727	0	774	728	634	2069	
728	0	774	728	633	2061	
729	0	775	729	633	2053	
730	0	776	729	634	2054	
731	0	775	728	633	2053	
732	0	774	729	633	2056	
733	0	774	729	632	2054	
734	0	774	729	633	2059	
735	0	774	728	634	2068	
736	0	773	728	634	2073	
737	0	774	728	633	2080	
738	0	773	727	634	2080	
739	0	774	729	633	2082	
740	0	775	729	633	2083	
741	0	774	728	633	2082	
742	0	774	727	634	2083	
743	0	774	728	633	2084	
744	0	774	729	633	2087	
745	0	775	728	633	2089	
746	0	774	728	633	2084	
747	0	775	728	633	2073	
748	0	775	729	633	2053	
749	0	774	728	632	2037	
750	0	773	727	633	2024	
751	0	774	727	632	2018	
752	0	774	728	633	2021	
753	0	774	728	632	2024	
754	0	774	728	632	2036	
755	0	773	727	632	2044	
756	0	774	728	632	2047	
757	0	774	728	632	2048	
758	0	774	728	631	2053	
759	0	774	729	632	2059	
760	0	773	728	632	2063	
761	0	774	729	633	2067	
762	0	774	728	632	2066	
763	0	774	727	632	2065	
764	0	773	729	633	2063	
765	0	774	729	633	2067	
766	0	774	728	632	2072	
767	0	774	728	633	2084	
768	0	776	729	633	2091	
769	0	775	728	632	2100	
770	0	774	728	632	2108	
771	0	775	728	632	2113	
772	0	774	728	633	2115	
773	0	775	728	633	2111	
774	0	775	729	632	2105	
775	0	776	729	632	2102	
776	0	774	728	632	2093	
777	0	774	730	632	2091	
778	0	774	729	632	2089	
779	0	774	729	633	2091	
780	0	774	728	633	2090	
781	0	774	729	633	2083	
782	0	774	728	632	2071	
783	0	775	728	632	2066	
784	0	775	728	633	2067	
785	0	774	728	633	2071	
786	0	774	728	632	2068	
787	0	774	729	633	2064	
788	0	775	729	633	2057	
789	0	776	729	633	2054	
790	0	775	729	634	2059	
791	0	774	728	633	2061	
792	0	774	728	633	2072	
793	0	774	730	633	2078	
794	0	774	729	632	2082	
795	0	774	729	632	2083	
796	0	773	729	632	2079	
797	0	773	729	633	2079	
798	0	773	731	632	2074	
799	0	772	730	632	2075	
800	0	773	730	633	2074	
801	0	772	729	632	2068	
802	0	772	729	632	2066	
803	0	773	729	632	2067	
804	0	774	730	632	2072	
805	0	773	729	632	2074	
806	0	773	729	632	2074	
807	0	773	729	632	2072	
808	0	774	729	632	2067	
809	0	773	730	631	2060	
810	0	773	730	632	2058	
811	0	773	729	632	2058	
812	0	773	729	632	2065	
813	0	773	730	632	2073	
814	0	773	730	632	2080	
815	0	773	730	633	2087	
816	0	773	729	632	2086	
817	0	773	729	632	2085	
818	0	772	729	633	2081	
819	0	773	729	633	2082	
820	0	772	729	633	2084	
821	0	773	730	633	2084	
822	0	774	728	633	2086	
823	0	774	731	633	2081	
824	0	773	730	632	2079	
825	0	773	730	634	2076	
826	0	773	729	633	2073	
827	0	773	729	633	2072	
828	0	772	730	633	2075	
829	0	774	730	633	2079	
830	0	772	729	633	2085	
831	0	773	729	633	2087	
832	0	773	729	633	2094	
833	0	774	730	632	2090	
834	0	773	731	632	2086	
835	0	773	730	633	2079	
836	0	772	729	633	2065	
837	0	772	729	633	2047	
838	0	772	730	633	2026	
839	0	773	731	633	2008	
840	0	773	730	633	2001	
841	0	773	729	633	2003	
842	0	774	729	633	2014	
843	0	774	730	633	2030	
844	0	774	729	634	2048	
845	0	774	729	634	2066	
846	0	774	729	633	2077	
847	0	773	729	633	2082	
848	0	773	730	632	2084	
849	0	774	730	633	2087	
850	0	774	729	633	2088	
851	0	774	729	633	2087	
852	0	774	729	633	2085	
853	0	773	730	633	2083	
854	0	774	730	633	2084	
855	0	772	730	633	2088	
856	0	773	729	633	2089	
857	0	773	729	633	2085	
858	0	773	730	633	2069	
859	0	774	730	633	2056	
860	0	774	729	633	2048	
861	0	773	729	633	2047	
862	0	773	728	633	2053	
863	0	774	729	633	2058	
864	0	774	729	633	2062	
865	0	774	728	633	2066	
866	0	775	729	633	2068	
867	0	777	728	633	2069	
868	0	775	728	633	2076	
869	0	775	729	634	2081	
870	0	775	728	633	2087	
871	0	776	729	634	2092	
872	0	775	729	633	2087	
873	0	774	729	634	2086	
874	0	775	730	633	2081	
875	0	774	728	634	2075	
876	0	774	728	633	2062	
877	0	774	727	634	2058	
878	0	774	730	633	2049	
879	0	774	730	633	2050	
880	0	773	728	633	2056	
881	0	773	728	633	2060	
882	0	773	728	633	2066	
883	0	773	729	633	2070	
884	0	774	730	633	2075	
885	0	773	729	634	2080	
886	0	774	728	634	2082	
887	0	774	727	634	2086	
888	0	774	731	633	2085	
889	0	774	728	633	2083	
890	0	774	728	634	2083	
891	0	774	728	633	2081	
892	0	774	727	634	2085	
893	0	774	729	634	2084	
894	0	773	728	633	2084	
895	0	773	728	634	2086	
896	0	774	728	633	2083	
897	0	772	728	633	2082	
898	0	772	728	634	2078	
899	0	773	727	634	2079	
900	0	774	728	634	2079	
901	0	773	728	634	2075	
902	0	773	726	634	2075	
903	0	774	728	633	2072	
904	0	773	727	633	2071	
905	0	774	728	634	2073	
906	0	773	726	634	2070	
907	0	774	727	634	2069	
908	0	774	727	634	2070	
909	0	774	727	634	2069	
910	0	773	727	633	2065	
911	0	774	727	634	2063	
912	0	773	728	633	2057	
913	0	772	727	633	2054	
914	0	773	728	634	2055	
915	0	773	727	634	2054	
916	0	774	727	633	2054	
917	0	775	727	634	2058	
918	0	774	728	634	2055	
919	0	774	728	634	2053	
920	0	774	728	634	2054	
921	0	773	727	634	2055	
922	0	773	727	634	2061	
923	0	774	729	633	2063	
924	0	773	728	633	2065	
925	0	773	728	634	2066	
926	0	772	727	633	2061	
927	0	772	727	634	2058	
928	0	773	729	633	2055	
929	0	772	728	633	2050	
930	0	772	729	633	2048	
931	0	773	729	634	2051	
932	0	776	728	633	2052	
933	0	773	728	633	2057	
934	0	775	729	634	2061	
935	0	775	729	634	2059	
936	0	776	729	634	2059	
937	0	777	728	633	2056	
938	0	773	729	633	2056	
939	0	774	728	634	2060	
940	0	774	729	634	2062	
941	0	773	729	633	2061	
942	0	774	727	634	2065	
943	0	774	729	633	2065	
944	0	773	729	632	2063	
945	0	774	729	633	2063	
946	0	773	729	633	2061	
947	0	774	728	634	2062	
948	0	775	729	633	2062	
949	0	775	729	633	2064	
950	0	775	729	634	2064	
951	0	775	729	633	2059	
952	0	775	727	634	2061	
953	0	775	729	634	2055	
954	0	774	729	633	2041	
955	0	774	729	634	2027	
956	0	773	729	633	2012	
957	0	774	727	634	2008	
958	0	775	730	634	2006	
959	0	774	729	633	2012	
960	0	774	730	634	2015	
961	0	774	729	634	2015	
962	0	774	729	634	2019	
963	0	774	730	633	2026	
964	0	775	729	632	2036	
965	0	776	730	634	2046	
966	0	774	729	633	2053	
967	0	775	727	634	2065	
968	0	775	729	634	2074	
969	0	774	729	633	2077	
970	0	775	729	634	2080	
971	0	773	729	634	2076	
972	0	774	729	633	2073	
973	0	774	730	633	2069	
974	0	775	731	633	2065	
975	0	775	729	633	2065	
976	0	775	729	633	2060	
977	0	774	729	633	2057	
978	0	774	730	633	2055	
979	0	775	730	633	2056	
980	0	774	730	633	2059	
981	0	774	730	633	2059	
982	0	774	730	633	2058	
983	0	773	730	633	2058	
984	0	773	730	633	2059	
985	0	774	729	634	2059	
986	0	774	729	634	2053	
987	0	774	729	633	2050	
988	0	774	729	633	2056	
989	0	774	730	633	2063	
990	0	774	729	633	2067	
991	0	774	729	633	2068	
992	0	774	729	633	2069	
993	0	774	730	634	2070	
994	0	775	730	633	2071	
995	0	775	730	634	2073	
996	0	774	729	633	2070	
997	0	774	729	633	2071	
998	0	774	729	633	2073	
999	0	775	730	633	2075	
1000	0	775	729	633	2078	
1001	0	775	729	633	2076	
1002	0	775	729	633	2076	
1003	0	774	729	633	2075	
1004	0	775	730	633	2073	
1005	0	775	729	633	2072	
1006	0	775	729	633	2069	
1007	0	775	729	633	2067	
1008	0	775	730	633	2067	
1009	0	775	730	633	2067	
1010	0	775	729	633	2067	
1011	0	775	730	633	2064	
1012	0	775	729	633	2060	
1013	0	774	729	633	2055	
1014	0	775	730	633	2050	
1015	0	775	729	633	2046	
1016	0	774	729	633	2042	
1017	0	774	729	633	2040	
1018	0	774	730	633	2039	
1019	0	775	730	633	2040	
1020	0	775	730	634	2040	
1021	0	774	729	633	2034	
1022	0	774	729	633	2030	
1023	0	775	729	633	2027	
1024	0	776	729	633	2032	
1025	0	775	728	633	2037	
1026	0	776	730	634	2049	
1027	0	775	729	633	2055	
1028	0	776	730	633	2064	
1029	0	776	730	633	2064	
1030	0	775	729	633	2059	
1031	0	776	729	634	2058	
1032	0	774	728	633	2054	
1033	0	774	729	634	2056	
1034	0	776	729	634	2059	
1035	0	775	728	633	2059	
1036	0	776	729	634	2063	
1037	0	777	728	633	2062	
1038	0	775	729	634	2065	
1039	0	775	729	634	2064	
1040	0	775	727	633	2058	
1041	0	775	729	633	2053	
1042	0	774	729	633	2046	
1043	0	775	729	633	2043	
1044	0	775	729	634	2046	
1045	0	776	728	633	2047	
1046	0	775	730	633	2053	
1047	0	774	729	633	2054	
1048	0	775	728	633	2062	
1049	0	776	729	633	2070	
1050	0	775	729	633	2077	
1051	0	775	729	634	2083	
1052	0	774	729	633	2084	
1053	0	775	728	633	2086	
1054	0	775	729	633	2082	
1055	0	775	727	633	2078	
1056	0	775	728	633	2072	
1057	0	774	729	634	2071	
1058	0	776	729	634	2061	
1059	0	776	729	634	2054	
1060	0	776	729	634	2055	
1061	0	775	728	634	2048	
1062	0	775	729	633	2046	
1063	0	775	729	632	2038	
1064	0	775	729	633	2032	
1065	0	775	729	634	2026	
1066	0	774	729	633	2016	
1067	0	774	728	634	2016	
1068	0	775	729	636	2018	
1069	0	776	729	634	2021	
1070	0	775	729	634	2027	
1071	0	774	729	633	2027	
1072	0	774	729	634	2036	
1073	0	775	729	633	2043	
1074	0	775	728	633	2052	
1075	0	776	728	633	2058	
1076	0	774	728	633	2059	
1077	0	774	728	633	2061	
1078	0	775	729	635	2057	
1079	0	774	729	633	2062	
1080	0	774	727	634	2068	
1081	0	774	729	634	2070	
1082	0	774	729	633	2067	
1083	0	775	729	633	2066	
1084	0	775	729	633	2066	
1085	0	775	729	633	2065	
1086	0	775	729	633	2060	
1087	0	775	729	634	2061	
1088	0	775	729	634	2064	
1089	0	775	729	635	2065	
1090	0	775	729	634	2069	
1091	0	774	728	633	2070	
1092	0	774	728	634	2071	
1093	0	775	729	634	2071	
1094	0	775	729	634	2069	
1095	0	776	729	634	2070	
1096	0	775	728	633	2071	
1097	0	774	729	634	2075	
1098	0	776	728	633	2069	
1099	0	776	728	634	2065	
1100	0	776	729	634	2062	
1101	0	775	728	633	2058	
1102	0	775	728	634	2057	
1103	0	775	728	635	2057	
1104	0	776	729	633	2060	
1105	0	774	727	632	2061	
1106	0	775	729	633	2059	
1107	0	775	727	633	2049	
1108	0	774	728	633	2046	
1109	0	775	729	633	2042	
1110	0	773	728	632	2038	
1111	0	775	729	634	2038	
1112	0	775	729	633	2037	
1113	0	775	729	634	2041	
1114	0	776	729	634	2045	
1115	0	774	728	633	2052	
1116	0	774	729	634	2058	
1117	0	774	729	633	2058	
1118	0	775	729	633	2053	
1119	0	775	728	632	2050	
1120	0	775	727	633	2047	
1121	0	775	728	633	2042	
1122	0	775	728	633	2037	
1123	0	774	728	633	2033	
1124	0	774	729	633	2034	
1125	0	774	728	633	2043	
1126	0	774	728	634	2049	
1127	0	775	728	634	2057	
1128	0	775	728	633	2066	
1129	0	776	729	633	2067	
1130	0	776	727	633	2072	
1131	0	776	728	633	2075	
1132	0	776	728	633	2078	
1133	0	776	728	633	2076	
1134	0	776	728	633	2073	
1135	0	775	728	633	2072	
1136	0	775	728	633	2066	
1137	0	775	728	633	2063	
1138	0	775	728	633	2060	
1139	0	775	728	632	2056	
1140	0	775	727	632	2052	
1141	0	775	727	633	2047	
1142	0	776	728	633	2047	
1143	0	775	728	632	2048	
1144	0	775	729	633	2049	
1145	0	774	727	632	2046	
1146	0	775	729	633	2042	
1147	0	774	729	633	2039	
1148	0	775	728	632	2041	
1149	0	776	729	633	2046	
1150	0	774	727	632	2047	
1151	0	775	729	633	2050	
1152	0	774	729	632	2048	
1153	0	775	729	632	2046	
1154	0	774	729	632	2044	
1155	0	775	729	633	2044	
1156	0	775	728	633	2044	
1157	0	774	729	633	2049	
1158	0	776	729	633	2048	
1159	0	775	729	632	2052	
1160	0	774	728	632	2053	
1161	0	775	729	633	2053	
1162	0	774	729	633	2046	
1163	0	774	728	632	2040	
1164	0	775	729	633	2040	
1165	0	774	728	632	2041	
1166	0	775	728	634	2047	
1167	0	773	728	633	2046	
1168	0	773	728	633	2049	
1169	0	775	728	634	2052	
1170	0	774	728	633	2050	
1171	0	775	729	633	2058	
1172	0	775	728	633	2060	
1173	0	774	728	633	2064	
1174	0	775	729	633	2063	
1175	0	775	727	633	2060	
1176	0	774	727	633	2056	
1177	0	773	728	634	2054	
1178	0	775	728	635	2050	
1179	0	775	728	632	2051	
1180	0	775	728	633	2050	
1181	0	776	728	633	2049	
1182	0	774	729	633	2050	
1183	0	775	729	634	2048	
1184	0	776	728	634	2049	
1185	0	777	729	633	2048	
1186	0	775	728	633	2047	
1187	0	775	729	633	2048	
1188	0	776	729	632	2050	
1189	0	775	729	632	2056	
1190	0	774	728	632	2061	
1191	0	776	729	633	2064	
1192	0	777	728	632	2064	
1193	0	776	729	632	2063	
1194	0	776	728	632	2057	
1195	0	775	728	633	2059	
1196	0	775	728	633	2061	
1197	0	776	728	633	2063	
1198	0	776	729	633	2056	
1199	0	777	729	632	2053	
1200	0	775	728	632	2053	
1201	0	775	729	633	2050	
1202	0	776	729	632	2048	
1203	0	775	729	633	2046	
1204	0	776	729	631	2049	
1205	0	775	728	633	2050	
1206	0	774	728	633	2036	
1207	0	775	728	633	2014	
1208	0	775	729	633	1995	
1209	0	775	729	632	1984	
1210	0	775	728	633	1990	
1211	0	776	728	633	2001	
1212	0	777	728	633	2019	
1213	0	776	729	633	2037	
1214	0	775	729	631	2054	
1215	0	776	728	633	2066	
1216	0	776	729	634	2077	
1217	0	775	728	633	2081	
1218	0	776	728	633	2080	
1219	0	776	728	634	2080	
1220	0	776	729	633	2077	
1221	0	775	728	632	2064	
1222	0	776	729	633	2059	
1223	0	776	729	635	2050	
1224	0	776	728	635	2042	
1225	0	777	729	633	2031	
1226	0	775	728	633	2019	
1227	0	776	728	634	2015	
1228	0	777	729	634	2016	
1229	0	775	728	633	2020	
1230	0	776	729	633	2029	
1231	0	776	729	633	2039	
1232	0	776	729	634	2051	
1233	0	776	729	634	2056	
1234	0	776	729	635	2061	
1235	0	776	729	634	2063	
1236	0	775	728	633	2064	
1237	0	775	728	634	2068	
1238	0	775	728	634	2068	
1239	0	776	729	633	2073	
1240	0	777	728	633	2076	
1241	0	776	729	633	2072	
1242	0	775	729	633	2066	
1243	0	775	728	634	2058	
1244	0	775	729	633	2046	
1245	0	775	728	633	2037	
1246	0	776	728	633	2032	
1247	0	776	728	633	2029	
1248	0	775	728	633	2033	
1249	0	776	729	633	2032	
1250	0	776	729	633	2035	
1251	0	776	729	633	2039	
1252	0	776	729	633	2041	
1253	0	776	728	634	2041	
1254	0	776	729	633	2041	
1255	0	775	729	633	2043	
1256	0	775	728	633	2049	
1257	0	775	728	634	2054	
1258	0	774	728	633	2054	
1259	0	774	729	633	2053	
1260	0	773	729	633	2050	
1261	0	773	728	634	2045	
1262	0	774	729	634	2045	
1263	0	775	729	634	2045	
1264	0	775	729	633	2046	
1265	0	774	728	633	2049	
1266	0	775	729	634	2053	
1267	0	775	729	634	2060	
1268	0	776	730	634	2066	
1269	0	776	730	634	2064	
1270	0	776	729	634	2064	
1271	0	775	729	633	2060	
1272	0	775	729	634	2055	
1273	0	775	729	634	2050	
1274	0	775	728	635	2047	
1275	0	776	729	634	2048	
1276	0	775	728	633	2042	
1277	0	775	728	634	2041	
1278	0	776	728	634	2033	
1279	0	775	729	634	2031	
1280	0	775	729	634	2034	
1281	0	775	728	634	2033	
1282	0	775	729	634	2029	
1283	0	776	730	634	2024	
1284	0	775	729	635	2022	
1285	0	775	729	633	2030	
1286	0	775	728	634	2032	
1287	0	775	728	634	2033	
1288	0	775	728	633	2030	
1289	0	776	729	634	2023	
1290	0	775	728	633	2018	
1291	0	775	729	634	2017	
1292	0	775	729	634	2016	
1293	0	775	729	634	2013	
1294	0	775	728	634	2009	
1295	0	774	728	633	2004	
1296	0	775	729	634	2001	
1297	0	775	728	633	1999	
1298	0	776	728	633	1998	
1299	0	776	729	634	1999	
1300	0	776	727	633	1999	
1301	0	776	729	634	2004	
1302	0	777	728	634	2007	
1303	0	774	727	633	2013	
1304	0	775	728	635	2020	
1305	0	775	729	634	2029	
1306	0	774	728	634	2029	
1307	0	774	727	634	2032	
1308	0	774	728	633	2032	
1309	0	775	729	634	2032	
1310	0	775	728	634	2025	
1311	0	775	728	633	2018	
1312	0	774	728	634	2015	
1313	0	776	729	634	2009	
1314	0	776	729	634	2006	
1315	0	776	729	634	2010	
1316	0	774	728	634	2015	
1317	0	775	728	635	2023	
1318	0	776	729	635	2022	
1319	0	774	728	634	2025	
1320	0	774	728	633	2029	
1321	0	775	729	634	2032	
1322	0	776	731	634	2034	
1323	0	775	728	634	2037	
1324	0	776	728	634	2039	
1325	0	775	728	633	2039	
1326	0	776	729	635	2040	
1327	0	775	728	634	2034	
1328	0	774	728	634	2034	
1329	0	775	729	634	2031	
1330	0	775	728	634	2022	
1331	0	775	729	634	2021	
1332	0	776	730	633	2018	
1333	0	775	729	633	2019	
1334	0	775	729	634	2018	
1335	0	774	728	634	2017	
1336	0	775	729	634	2020	
1337	0	775	730	634	2017	
1338	0	774	729	633	2018	
1339	0	775	728	634	2019	
1340	0	774	728	633	2023	
1341	0	774	728	633	2026	
1342	0	774	727	634	2027	
1343	0	774	727	634	2030	
1344	0	774	728	634	2030	
1345	0	775	728	632	2030	
1346	0	776	728	633	2026	
1347	0	776	728	633	2024	
1348	0	775	727	633	2029	
1349	0	775	729	634	2034	
1350	0	775	729	633	2044	
1351	0	775	729	633	2047	
1352	0	775	728	633	2048	
1353	0	776	727	633	2050	
1354	0	776	728	633	2048	
1355	0	775	728	633	2051	
1356	0	775	728	633	2051	
1357	0	775	728	634	2053	
1358	0	775	728	633	2045	
1359	0	774	729	634	2038	
1360	0	775	728	633	2037	
1361	0	775	728	633	2038	
1362	0	775	728	633	2044	
1363	0	775	728	634	2047	
1364	0	775	729	634	2043	
1365	0	776	729	633	2037	
1366	0	775	728	633	2027	
1367	0	775	728	633	2024	
1368	0	774	729	633	2032	
1369	0	775	730	633	2044	
1370	0	774	728	633	2062	
1371	0	774	729	634	2077	
1372	0	775	727	634	2083	
1373	0	773	728	633	2083	
1374	0	775	729	634	2073	
1375	0	773	728	633	2060	
1376	0	773	729	633	2052	
1377	0	774	729	632	2060	
1378	0	775	730	635	2056	
1379	0	774	729	634	2059	
1380	0	775	729	634	2066	
1381	0	774	728	633	2068	
1382	0	774	730	632	2074	
1383	0	775	730	634	2075	
1384	0	773	729	633	2075	
1385	0	774	729	633	2074	
1386	0	775	732	633	2070	
1387	0	774	728	633	2069	
1388	0	774	728	633	2070	
1389	0	774	729	633	2071	
1390	0	773	729	633	2073	
1391	0	774	728	633	2072	
1392	0	774	728	633	2075	
1393	0	775	728	634	2077	
1394	0	775	728	633	2079	
1395	0	774	729	633	2078	
1396	0	774	729	633	2069	
1397	0	774	729	633	2062	
1398	0	774	728	634	2051	
1399	0	774	729	633	2045	
1400	0	774	728	633	2043	
1401	0	774	729	633	2038	
1402	0	774	729	633	2040	
1403	0	774	729	633	2044	
1404	0	775	729	634	2051	
1405	0	775	729	633	2059	
1406	0	774	729	633	2063	
1407	0	774	729	633	2067	
1408	0	773	729	633	2071	
1409	0	775	729	633	2075	
1410	0	774	729	633	2080	
1411	0	775	730	634	2087	
1412	0	776	729	633	2089	
1413	0	774	728	633	2089	
1414	0	775	729	633	2085	
1415	0	775	729	633	2074	
1416	0	775	729	632	2064	
1417	0	774	729	633	2050	
1418	0	775	728	633	2035	
1419	0	775	729	633	2023	
1420	0	774	729	633	2014	
1421	0	773	729	632	2006	
1422	0	774	729	633	1999	
1423	0	773	729	634	1996	
1424	0	774	729	633	1987	
1425	0	773	729	633	1971	
1426	0	775	729	633	1946	
1427	0	775	729	633	1921	
1428	0	776	729	634	1906	
1429	0	775	730	634	1888	
1430	0	774	729	633	1873	
1431	0	775	730	633	1860	
1432	0	774	729	633	1853	
1433	0	774	729	634	1852	
1434	0	775	729	634	1858	
1435	0	775	729	634	1877	
1436	0	775	729	633	1897	
1437	0	775	729	633	1921	
1438	0	775	729	634	1942	
1439	0	775	730	634	1967	
1440	0	775	729	634	1993	
1441	0	775	730	633	2011	
1442	0	775	729	632	2021	
1443	0	775	730	633	2027	
1444	0	774	729	633	2027	
1445	0	775	729	633	2034	
1446	0	775	729	633	2043	
1447	0	776	729	633	2061	
1448	0	775	729	633	2093	
1449	0	776	729	633	2128	
1450	0	775	729	633	2164	
1451	0	775	730	633	2196	
1452	0	775	731	633	2220	
1453	0	774	730	632	2246	
1454	0	775	730	633	2281	
1455	0	774	729	633	2322	
1456	0	775	729	633	2375	
1457	0	775	730	633	2427	
1458	0	777	730	633	2472	
1459	0	777	730	633	2502	
1460	0	775	730	633	2513	
1461	0	776	730	633	2508	
1462	0	777	729	632	2492	
1463	0	774	730	633	2471	
1464	0	776	730	634	2442	
1465	0	775	729	633	2413	
1466	0	775	729	633	2380	
1467	0	775	730	632	2351	
1468	0	776	730	632	2325	
1469	0	775	729	634	2305	
1470	0	776	729	632	2283	
1471	0	775	729	632	2263	
1472	0	776	729	632	2244	
1473	0	775	730	632	2223	
1474	0	775	730	634	2201	
1475	0	774	729	632	2178	
1476	0	775	730	632	2158	
1477	0	776	730	632	2136	
1478	0	774	730	632	2110	
1479	0	775	729	634	2093	
1480	0	775	729	632	2075	
1481	0	775	729	633	2059	
1482	0	776	728	632	2048	
1483	0	774	730	633	2038	
1484	0	775	729	634	2029	
1485	0	775	729	633	2023	
1486	0	774	728	633	2019	
1487	0	774	730	632	2020	
1488	0	774	729	633	2021	
1489	0	772	729	633	2021	
1490	0	771	729	632	2015	
1491	0	770	729	632	2010	
1492	0	771	729	632	2007	
1493	0	770	730	633	2007	
1494	0	771	731	633	2008	
1495	0	771	730	632	2009	
1496	0	772	731	633	2012	
1497	0	772	732	634	2008	
1498	0	771	730	633	2007	
1499	0	771	731	633	2007	
1500	0	771	731	633	2000	
1501	0	772	731	633	1996	
1502	0	773	730	633	1992	
1503	0	773	730	633	1991	
1504	0	774	731	634	1989	
1505	0	773	730	633	1984	
1506	0	775	731	633	1981	
1507	0	775	729	632	1973	
1508	0	775	729	633	1971	
1509	0	776	729	634	1966	
1510	0	777	729	634	1965	
1511	0	778	729	633	1967	
1512	0	777	729	633	1970	
1513	0	777	728	633	1975	
1514	0	778	728	633	1976	
1515	0	778	729	633	1984	
1516	0	777	728	633	1984	
1517	0	778	728	632	1980	
1518	0	778	729	633	1961	
1519	0	777	729	633	1942	
1520	0	777	728	633	1936	
1521	0	775	728	633	1936	
1522	0	774	728	631	1950	
1523	0	775	729	635	1963	
1524	0	774	729	633	1976	
1525	0	775	730	634	1991	
1526	0	774	730	633	2004	
1527	0	773	729	632	2012	
1528	0	773	730	633	2029	
1529	0	774	730	634	2039	
1530	0	773	729	633	2044	
1531	0	774	730	633	2044	
1532	0	774	730	633	2045	
1533	0	774	730	632	2047	
1534	0	775	730	634	2053	
1535	0	773	729	634	2051	
1536	0	773	730	634	2048	
1537	0	773	730	633	2041	
1538	0	771	729	633	2031	
1539	0	771	729	634	2025	
1540	0	771	729	634	2021	
1541	0	771	728	633	2013	
1542	0	771	728	632	2013	
1543	0	772	728	634	2013	
1544	0	771	728	634	2015	
1545	0	773	728	634	2018	
1546	0	774	727	634	2015	
1547	0	774	728	633	2011	
1548	0	776	727	634	2009	
1549	0	776	728	634	2009	
1550	0	775	726	634	2008	
1551	0	776	727	634	2010	
1552	0	776	728	633	2009	
1553	0	776	727	633	2007	
1554	0	776	728	634	2005	
1555	0	775	728	632	1998	
1556	0	774	728	633	1997	
1557	0	775	727	633	2000	
1558	0	776	728	634	2000	
1559	0	775	729	633	1999	
1560	0	776	729	633	2000	
1561	0	776	728	633	1998	
1562	0	775	728	632	1996	
1563	0	777	729	633	1990	
1564	0	775	729	635	1984	
1565	0	776	729	633	1977	
1566	0	775	729	633	1971	
1567	0	774	729	633	1965	
1568	0	774	729	633	1965	
1569	0	775	729	634	1960	
1570	0	776	729	633	1957	
1571	0	776	729	633	1955	
1572	0	776	729	633	1953	
1573	0	776	729	634	1959	
1574	0	775	729	634	1968	
1575	0	775	729	633	1979	
1576	0	775	729	633	1979	
1577	0	774	729	633	1976	
1578	0	773	729	633	1970	
1579	0	774	730	634	1975	
1580	0	774	729	633	1980	
1581	0	774	730	633	1984	
1582	0	774	730	633	1988	
1583	0	774	730	633	1991	
1584	0	774	729	633	1995	
1585	0	774	729	633	1997	
1586	0	774	729	633	1994	
1587	0	774	729	633	1991	
1588	0	774	729	634	1985	
1589	0	773	729	634	1966	
1590	0	774	728	633	1944	
1591	0	775	728	633	1929	
1592	0	775	728	633	1923	
1593	0	775	728	634	1930	
1594	0	774	729	634	1941	
1595	0	774	728	633	1959	
1596	0	775	729	633	1977	
1597	0	774	729	633	1994	
1598	0	774	729	633	2002	
1599	0	775	729	634	2013	
1600	0	775	728	633	2024	
1601	0	775	729	633	2032	
1602	0	776	729	633	2038	
1603	0	776	729	634	2038	
1604	0	775	729	634	2033	
1605	0	775	730	632	2031	
1606	0	775	729	633	2027	
1607	0	775	729	633	2025	
1608	0	774	729	633	2025	
1609	0	774	730	634	2021	
1610	0	774	729	633	2020	
1611	0	774	730	633	2019	
1612	0	774	730	633	2019	
1613	0	773	729	634	2018	
1614	0	773	729	633	2019	
1615	0	774	729	633	2016	
1616	0	774	730	634	2014	
1617	0	774	729	633	2008	
1618	0	773	729	633	2001	
1619	0	773	729	634	1999	
1620	0	774	729	634	1999	
1621	0	774	729	633	1995	
1622	0	774	728	633	1996	
1623	0	774	729	633	1995	
1624	0	774	729	633	1995	
1625	0	775	729	634	1993	
1626	0	775	728	633	1989	
1627	0	774	728	633	1987	
1628	0	775	728	633	1985	
1629	0	775	728	634	1986	
1630	0	775	728	633	1984	
1631	0	775	729	634	1987	
1632	0	774	728	634	1984	
1633	0	775	728	634	1986	
1634	0	775	729	634	1990	
1635	0	774	728	633	1987	
1636	0	775	728	634	1991	
1637	0	774	730	633	1989	
1638	0	775	727	633	1987	
1639	0	775	728	634	1989	
1640	0	774	726	633	1990	
1641	0	776	727	634	1995	
1642	0	778	728	633	1991	
1643	0	775	727	634	1982	
1644	0	775	728	634	1971	
1645	0	776	728	634	1964	
1646	0	776	727	633	1961	
1647	0	774	727	633	1963	
1648	0	775	728	634	1969	
1649	0	774	727	634	1968	
1650	0	776	728	634	1970	
1651	0	775	728	633	1970	
1652	0	775	728	633	1970	
1653	0	776	728	634	1970	
1654	0	775	728	635	1970	
1655	0	776	728	633	1976	
1656	0	776	729	634	1980	
1657	0	776	729	633	1981	
1658	0	776	728	633	1979	
1659	0	776	729	634	1981	
1660	0	775	728	633	1976	
1661	0	775	728	633	1967	
1662	0	775	728	633	1955	
1663	0	775	728	633	1941	
1664	0	775	728	634	1928	
1665	0	775	729	633	1922	
1666	0	776	729	633	1918	
1667	0	776	728	634	1918	
1668	0	776	728	634	1927	
1669	0	776	729	633	1934	
1670	0	775	729	632	1944	
1671	0	775	728	633	1950	
1672	0	775	729	633	1960	
1673	0	776	729	634	1967	
1674	0	774	729	634	1978	
1675	0	775	729	633	1989	
1676	0	775	729	633	1991	
1677	0	775	728	634	1986	
1678	0	775	728	634	1977	
1679	0	776	729	634	1966	
1680	0	776	729	633	1966	
1681	0	776	729	634	1967	
1682	0	774	729	634	1968	
1683	0	776	729	634	1967	
1684	0	774	729	634	1961	
1685	0	775	729	633	1957	
1686	0	776	730	635	1957	
1687	0	776	729	634	1953	
1688	0	775	729	634	1949	
1689	0	775	729	635	1945	
1690	0	775	730	635	1938	
1691	0	774	729	634	1936	
1692	0	775	729	634	1942	
1693	0	776	729	634	1948	
1694	0	774	729	635	1957	
1695	0	776	730	634	1962	
1696	0	775	729	633	1965	
1697	0	776	729	633	1966	
1698	0	776	730	634	1960	
1699	0	775	729	633	1959	
1700	0	775	730	634	1961	
1701	0	775	729	633	1958	
1702	0	776	729	633	1959	
1703	0	776	730	634	1954	
1704	0	775	730	633	1948	
1705	0	776	730	634	1946	
1706	0	776	729	633	1942	
1707	0	775	729	634	1945	
1708	0	775	729	634	1950	
1709	0	774	730	634	1957	
1710	0	776	729	634	1963	
1711	0	776	729	634	1964	
1712	0	776	728	634	1967	
1713	0	776	729	634	1966	
1714	0	775	729	634	1965	
1715	0	776	729	634	1962	
1716	0	774	729	633	1956	
1717	0	775	728	634	1954	
1718	0	775	729	634	1949	
1719	0	775	728	634	1950	
1720	0	774	728	633	1949	
1721	0	776	729	634	1950	
1722	0	778	728	633	1949	
1723	0	775	729	634	1951	
1724	0	776	729	633	1955	
1725	0	775	728	632	1955	
1726	0	775	729	633	1957	
1727	0	775	729	632	1951	
1728	0	777	728	633	1947	
1729	0	776	729	634	1939	
1730	0	776	728	633	1929	
1731	0	777	729	633	1928	
1732	0	777	729	634	1932	
1733	0	776	729	634	1938	
1734	0	776	729	633	1939	
1735	0	776	728	633	1938	
1736	0	776	729	633	1932	
1737	0	776	728	633	1926	
1738	0	776	729	633	1926	
1739	0	775	729	633	1925	
1740	0	776	729	632	1930	
1741	0	775	729	633	1935	
1742	0	776	729	633	1939	
1743	0	775	728	633	1947	
1744	0	775	729	633	1954	
1745	0	776	729	633	1961	
1746	0	776	729	633	1968	
1747	0	777	729	633	1971	
1748	0	777	729	633	1978	
1749	0	777	729	633	1980	
1750	0	776	729	632	1988	
1751	0	776	729	633	1991	
1752	0	777	729	632	1993	
1753	0	777	729	632	1994	
1754	0	776	729	633	1994	
1755	0	775	728	632	1996	
1756	0	774	729	633	1999	
1757	0	775	728	633	2004	
1758	0	775	728	633	2002	
1759	0	775	728	633	2004	
1760	0	775	728	632	2009	
1761	0	775	728	633	2012	
1762	0	776	728	633	2016	
1763	0	776	728	633	2021	
1764	0	776	729	633	2021	
1765	0	776	728	632	2018	
1766	0	775	728	633	2005	
1767	0	776	728	633	1988	
1768	0	776	728	632	1970	
1769	0	775	729	633	1960	
1770	0	775	728	632	1960	
1771	0	775	728	633	1964	
1772	0	775	728	633	1976	
1773	0	775	728	633	1992	
1774	0	775	729	633	2008	
1775	0	775	728	632	2015	
1776	0	774	728	633	2020	
1777	0	775	728	632	2026	
1778	0	776	728	633	2033	
1779	0	776	728	632	2051	
1780	0	776	728	632	2073	
1781	0	776	728	632	2090	
1782	0	776	728	632	2106	
1783	0	777	728	632	2116	
1784	0	776	728	632	2122	
1785	0	776	728	632	2125	
1786	0	776	728	632	2125	
1787	0	776	728	632	2124	
1788	0	777	728	632	2125	
1789	0	776	729	632	2124	
1790	0	776	728	631	2123	
1791	0	776	728	632	2124	
1792	0	777	728	633	2120	
1793	0	776	728	633	2116	
1794	0	776	728	633	2115	
1795	0	776	728	633	2109	
1796	0	776	728	632	2107	
1797	0	776	728	632	2105	
1798	0	776	728	632	2101	
1799	0	776	728	633	2101	
1800	0	775	727	632	2100	
1801	0	775	728	632	2102	
1802	0	776	728	632	2103	
1803	0	776	728	633	2104	
1804	0	775	728	633	2108	
1805	0	775	728	632	2109	
1806	0	775	728	633	2112	
1807	0	776	728	633	2116	
1808	0	776	728	633	2119	
1809	0	776	727	633	2115	
1810	0	776	728	632	2108	
1811	0	775	728	633	2103	
1812	0	776	729	633	2093	
1813	0	775	728	633	2094	
1814	0	776	729	633	2097	
1815	0	774	728	632	2100	
1816	0	773	728	633	2098	
1817	0	776	728	632	2088	
1818	0	775	728	632	2079	
1819	0	775	728	633	2081	
1820	0	775	727	633	2080	
1821	0	774	728	633	2081	
1822	0	776	727	633	2082	
1823	0	776	727	633	2086	
1824	0	776	727	633	2090	
1825	0	776	727	633	2093	
1826	0	776	728	633	2101	
1827	0	777	728	633	2107	
1828	0	778	728	633	2118	
1829	0	775	728	633	2122	
1830	0	774	728	632	2125	
1831	0	775	728	633	2125	
1832	0	775	728	634	2124	
1833	0	776	728	633	2125	
1834	0	775	728	633	2129	
1835	0	775	729	633	2139	
1836	0	774	728	633	2143	
1837	0	775	729	633	2145	
1838	0	775	728	633	2144	
1839	0	775	729	633	2144	
1840	0	775	728	633	2138	
1841	0	775	729	633	2127	
1842	0	775	728	633	2116	
1843	0	775	728	633	2111	
1844	0	774	729	633	2112	
1845	0	773	730	633	2113	
1846	0	773	728	633	2113	
1847	0	772	729	633	2115	
1848	0	774	729	634	2121	
1849	0	773	729	633	2117	
1850	0	774	729	633	2121	
1851	0	774	727	633	2120	
1852	0	776	728	633	2123	
1853	0	776	728	632	2122	
1854	0	778	729	633	2121	
1855	0	778	728	632	2118	
1856	0	778	729	633	2114	
1857	0	780	728	633	2113	
1858	0	780	728	633	2114	
1859	0	778	729	633	2114	
1860	0	779	729	633	2118	
1861	0	777	728	633	2116	
1862	0	776	728	633	2114	
1863	0	776	729	634	2107	
1864	0	774	728	633	2096	
1865	0	774	729	633	2091	
1866	0	774	729	633	2089	
1867	0	773	729	633	2093	
1868	0	773	728	633	2102	
1869	0	773	730	634	2111	
1870	0	772	729	633	2113	
1871	0	772	730	633	2114	
1872	0	771	730	633	2117	
1873	0	772	731	633	2116	
1874	0	771	731	633	2114	
1875	0	773	731	633	2116	
1876	0	772	730	633	2119	
1877	0	773	730	633	2119	
1878	0	774	730	633	2115	
1879	0	773	729	633	2114	
1880	0	774	729	633	2111	
1881	0	773	730	633	2111	
1882	0	775	730	632	2109	
1883	0	775	729	633	2107	
1884	0	775	730	634	2104	
1885	0	775	729	635	2099	
1886	0	775	728	634	2092	
1887	0	773	728	634	2084	
1888	0	776	729	634	2080	
1889	0	774	728	634	2071	
1890	0	775	729	635	2063	
1891	0	774	728	634	2057	
1892	0	775	728	634	2057	
1893	0	776	729	635	2067	
1894	0	776	728	634	2073	
1895	0	775	728	633	2081	
1896	0	774	728	635	2090	
1897	0	776	728	633	2092	
1898	0	775	729	633	2097	
1899	0	776	729	634	2105	
1900	0	776	728	634	2103	
1901	0	775	729	634	2106	
1902	0	775	728	632	2102	
1903	0	774	728	634	2097	
1904	0	775	729	634	2099	
1905	0	775	728	633	2096	
1906	0	774	729	634	2098	
1907	0	775	730	634	2097	
1908	0	775	729	634	2103	
1909	0	776	729	634	2105	
1910	0	775	728	634	2106	
1911	0	774	729	634	2108	
1912	0	776	728	633	2104	
1913	0	775	729	634	2104	
1914	0	775	729	634	2101	
1915	0	774	728	633	2099	
1916	0	775	729	633	2097	
1917	0	775	729	634	2099	
1918	0	776	729	634	2095	
1919	0	776	728	634	2094	
1920	0	775	728	634	2092	
1921	0	775	728	634	2088	
1922	0	774	729	634	2085	
1923	0	775	729	634	2085	
1924	0	774	728	634	2083	
1925	0	774	728	634	2083	
1926	0	774	729	634	2084	
1927	0	775	730	634	2082	
1928	0	775	729	633	2086	
1929	0	775	729	634	2087	
1930	0	774	728	634	2084	
1931	0	773	729	635	2084	
1932	0	775	728	633	2079	
1933	0	775	729	634	2077	
1934	0	775	729	634	2074	
1935	0	775	728	633	2064	
1936	0	775	729	634	2061	
1937	0	776	729	633	2058	
1938	0	776	729	634	2060	
1939	0	776	729	634	2062	
1940	0	775	728	633	2058	
1941	0	776	728	634	2053	
1942	0	776	730	634	2048	
1943	0	776	728	633	2050	
1944	0	776	727	634	2056	
1945	0	777	729	635	2066	
1946	0	776	728	634	2062	
1947	0	775	728	634	2052	
1948	0	775	728	634	2037	
1949	0	774	728	633	2026	
1950	0	775	729	634	2025	
1951	0	774	729	633	2031	
1952	0	775	728	633	2037	
1953	0	774	728	634	2041	
1954	0	775	729	634	2046	
1955	0	775	728	633	2052	
1956	0	774	729	634	2065	
1957	0	775	731	634	2082	
1958	0	776	729	633	2099	
1959	0	776	729	634	2108	
1960	0	776	728	633	2108	
1961	0	776	729	634	2107	
1962	0	776	729	634	2104	
1963	0	776	729	632	2104	
1964	0	775	727	634	2108	
1965	0	776	728	634	2110	
1966	0	775	727	633	2110	
1967	0	775	728	633	2111	
1968	0	774	729	634	2109	
1969	0	775	729	634	2108	
1970	0	774	728	633	2105	
1971	0	773	729	633	2104	
1972	0	775	728	633	2100	
1973	0	775	729	632	2100	
1974	0	774	728	633	2100	
1975	0	775	728	633	2099	
1976	0	776	728	633	2099	
1977	0	775	728	633	2098	
1978	0	776	728	633	2098	
1979	0	773	728	633	2096	
1980	0	774	729	633	2089	
1981	0	774	729	633	2079	
1982	0	774	729	633	2067	
1983	0	774	729	633	2059	
1984	0	774	728	633	2053	
1985	0	775	729	633	2049	
1986	0	775	729	633	2051	
1987	0	775	729	633	2056	
1988	0	776	729	632	2061	
1989	0	774	729	633	2067	
1990	0	775	729	633	2073	
1991	0	774	729	634	2076	
1992	0	774	729	632	2081	
1993	0	777	729	632	2088	
1994	0	774	729	633	2097	
1995	0	775	729	632	2103	
1996	0	774	729	632	2102	
1997	0	775	729	632	2096	
1998	0	775	730	633	2091	
1999	0	773	729	632	2079	
2000	0	774	730	633	2075	
2001	0	774	730	632	2075	
2002	0	774	730	632	2080	
2003	0	775	730	633	2090	
2004	0	773	728	632	2089	
2005	0	775	729	633	2086	
2006	0	774	729	632	2078	
2007	0	775	729	632	2076	
2008	0	775	731	632	2073	
2009	0	775	730	633	2073	
2010	0	774	729	633	2068	
2011	0	774	730	633	2068	
2012	0	775	730	632	2067	
2013	0	775	730	632	2065	
2014	0	775	730	633	2068	
2015	0	774	729	632	2071	
2016	0	775	730	633	2080	
2017	0	775	732	633	2084	
2018	0	774	731	632	2085	
2019	0	773	729	632	2084	
2020	0	774	730	633	2086	
2021	0	774	730	632	2085	
2022	0	774	729	632	2086	
2023	0	774	731	632	2081	
2024	0	774	729	633	2076	
2025	0	775	730	633	2071	
2026	0	774	729	633	2068	
2027	0	774	729	633	2074	
2028	0	773	731	633	2078	
2029	0	773	730	633	2084	
2030	0	774	731	633	2087	
2031	0	775	730	632	2087	
2032	0	775	729	633	2091	
2033	0	774	731	632	2096	
2034	0	773	729	633	2102	
2035	0	774	729	633	2106	
2036	0	775	729	633	2109	
2037	0	775	729	633	2109	
2038	0	775	729	633	2113	
2039	0	773	729	633	2112	
2040	0	774	729	634	2107	
2041	0	774	729	633	2103	
2042	0	775	729	633	2099	
2043	0	775	730	633	2094	
2044	0	774	729	633	2094	
2045	0	774	730	633	2090	
2046	0	774	729	633	2084	
2047	0	774	729	633	2079	
2048	0	774	729	632	2077	
2049	0	773	730	633	2079	
2050	0	774	730	633	2082	
2051	0	774	730	633	2085	
2052	0	774	730	633	2081	
2053	0	774	729	633	2078	
2054	0	772	729	633	2075	
2055	0	774	729	633	2073	
2056	0	773	730	633	2072	
2057	0	773	729	633	2073	
2058	0	773	731	634	2072	
2059	0	774	730	634	2073	
2060	0	774	729	634	2068	
2061	0	774	729	634	2067	
2062	0	773	729	633	2063	
2063	0	773	730	634	2064	
2064	0	772	729	634	2063	
2065	0	774	730	633	2062	
2066	0	774	730	633	2063	
2067	0	773	730	633	2060	
2068	0	775	730	634	2053	
2069	0	772	729	633	2046	
2070	0	774	730	634	2042	
2071	0	773	729	633	2039	
2072	0	774	729	633	2042	
2073	0	774	730	634	2048	
2074	0	773	728	634	2053	
2075	0	775	729	634	2062	
2076	0	774	729	634	2070	
2077	0	774	730	633	2077	
2078	0	775	731	634	2088	
2079	0	774	729	633	2094	
2080	0	775	729	633	2097	
2081	0	775	730	634	2100	
2082	0	775	729	635	2098	
2083	0	775	730	633	2097	
2084	0	774	728	633	2097	
2085	0	775	730	634	2098	
2086	0	774	729	633	2096	
2087	0	774	729	634	2096	
2088	0	773	729	633	2092	
2089	0	773	729	633	2091	
2090	0	773	730	633	2084	
2091	0	774	730	633	2078	
2092	0	776	730	632	2073	
2093	0	774	731	633	2068	
2094	0	773	729	633	2065	
2095	0	774	729	632	2061	
2096	0	773	730	632	2061	
2097	0	774	730	633	2060	
2098	0	774	728	633	2063	
2099	0	774	729	633	2062	
2100	0	774	729	633	2062	
2101	0	774	729	633	2067	
2102	0	775	729	634	2077	
2103	0	775	728	633	2084	
2104	0	774	728	633	2090	
2105	0	775	728	633	2089	
2106	0	774	729	633	2090	
2107	0	775	729	634	2087	
2108	0	775	729	633	2087	
2109	0	775	728	633	2085	
2110	0	775	728	633	2082	
2111	0	776	729	633	2080	
2112	0	776	729	634	2078	
2113	0	776	728	633	2077	
2114	0	775	729	633	2076	
2115	0	775	729	633	2076	
2116	0	775	729	632	2076	
2117	0	776	730	633	2078	
2118	0	775	731	633	2081	
2119	0	776	730	633	2085	
2120	0	774	729	633	2080	
2121	0	774	729	633	2074	
2122	0	774	729	634	2062	
2123	0	775	728	634	2053	
2124	0	774	728	633	2046	
2125	0	774	729	633	2040	
2126	0	774	728	632	2045	
2127	0	775	729	633	2051	
2128	0	775	728	632	2053	
2129	0	774	729	633	2053	
2130	0	775	729	633	2051	
2131	0	774	729	633	2051	
2132	0	775	729	632	2056	
2133	0	775	730	632	2063	
2134	0	773	728	633	2070	
2135	0	774	729	633	2074	
2136	0	775	729	633	2076	
2137	0	775	728	632	2076	
2138	0	775	728	633	2077	
2139	0	775	728	633	2075	
2140	0	775	728	633	2073	
2141	0	775	728	633	2071	
2142	0	774	729	632	2069	
2143	0	775	730	632	2072	
2144	0	774	729	632	2079	
2145	0	774	730	632	2083	
2146	0	773	729	632	2079	
2147	0	774	729	631	2069	
2148	0	775	729	632	2055	
2149	0	774	729	632	2045	
2150	0	776	729	632	2047	
2151	0	776	729	632	2051	
2152	0	775	729	632	2060	
2153	0	775	729	632	2070	
2154	0	774	728	632	2077	
2155	0	775	729	633	2083	
2156	0	774	728	632	2083	
2157	0	775	728	631	2081	
2158	0	774	729	632	2077	
2159	0	773	728	632	2073	
2160	0	774	729	632	2072	
2161	0	773	729	632	2069	
2162	0	774	729	631	2069	
2163	0	774	729	632	2072	
2164	0	773	729	632	2072	
2165	0	774	730	632	2072	
2166	0	774	729	631	2066	
2167	0	774	729	632	2061	
2168	0	774	729	632	2054	
2169	0	774	730	632	2054	
2170	0	774	729	631	2051	
2171	0	774	729	632	2053	
2172	0	775	729	632	2051	
2173	0	775	729	632	2054	
2174	0	774	729	633	2058	
2175	0	774	729	632	2057	
2176	0	774	728	632	2066	
2177	0	774	731	631	2069	
2178	0	775	730	632	2074	
2179	0	774	729	632	2076	
2180	0	774	729	631	2073	
2181	0	774	728	632	2074	
2182	0	775	729	633	2069	
2183	0	774	728	632	2064	
2184	0	774	728	632	2063	
2185	0	775	729	633	2062	
2186	0	774	728	632	2059	
2187	0	774	728	632	2060	
2188	0	774	729	632	2058	
2189	0	775	728	633	2061	
2190	0	775	727	631	2060	
2191	0	775	726	633	2060	
2192	0	774	727	633	2059	
2193	0	775	728	632	2052	
2194	0	775	728	633	2042	
2195	0	775	728	633	2027	
2196	0	774	728	633	2015	
2197	0	773	728	633	2010	
2198	0	775	728	633	2016	
2199	0	775	728	633	2025	
2200	0	775	728	633	2033	
2201	0	775	728	633	2043	
2202	0	774	729	632	2052	
2203	0	775	729	633	2063	
2204	0	775	728	633	2076	
2205	0	775	728	632	2085	
2206	0	775	729	632	2094	
2207	0	774	729	632	2099	
2208	0	775	728	633	2104	
2209	0	775	729	633	2105	
2210	0	774	728	633	2100	
2211	0	774	728	633	2087	
2212	0	774	729	633	2074	
2213	0	776	728	633	2062	
2214	0	774	728	633	2053	
2215	0	775	728	633	2051	
2216	0	775	728	633	2057	
2217	0	774	728	633	2062	
2218	0	776	729	634	2066	
2219	0	774	728	634	2066	
2220	0	775	728	634	2068	
2221	0	775	727	634	2075	
2222	0	775	729	633	2077	
2223	0	775	729	634	2077	
2224	0	776	729	634	2079	
2225	0	775	728	633	2076	
2226	0	775	728	634	2076	
2227	0	776	730	633	2074	
2228	0	776	729	633	2076	
2229	0	777	729	634	2076	
2230	0	776	728	633	2072	
2231	0	776	728	634	2071	
2232	0	776	729	633	2068	
2233	0	776	729	633	2067	
2234	0	775	729	633	2070	
2235	0	775	729	633	2071	
2236	0	775	729	633	2071	
2237	0	775	729	633	2070	
2238	0	775	730	634	2069	
2239	0	774	728	634	2062	
2240	0	774	728	634	2053	
2241	0	775	728	634	2045	
2242	0	774	729	633	2039	
2243	0	775	728	634	2038	
2244	0	774	728	634	2039	
2245	0	774	728	634	2039	
2246	0	774	728	634	2040	
2247	0	773	729	634	2042	
2248	0	775	729	634	2043	
2249	0	774	728	634	2050	
2250	0	774	728	634	2055	
2251	0	774	728	634	2061	
2252	0	774	728	634	2064	
2253	0	775	729	634	2064	
2254	0	774	727	634	2063	
2255	0	775	728	634	2062	
2256	0	774	728	634	2064	
2257	0	774	728	634	2070	
2258	0	775	728	634	2078	
2259	0	775	728	634	2077	
2260	0	774	728	634	2068	
2261	0	775	728	635	2059	
2262	0	775	729	633	2049	
2263	0	775	728	634	2047	
2264	0	775	728	635	2053	
2265	0	774	728	634	2056	
2266	0	774	727	635	2066	
2267	0	775	730	634	2069	
2268	0	775	728	633	2071	
2269	0	775	728	635	2072	
2270	0	774	728	634	2066	
2271	0	774	726	635	2063	
2272	0	774	727	634	2059	
2273	0	774	729	634	2058	
2274	0	774	728	634	2060	
2275	0	774	727	634	2060	
2276	0	775	727	634	2062	
2277	0	775	728	634	2062	
2278	0	775	727	635	2062	
2279	0	775	727	635	2062	
2280	0	774	727	635	2061	
2281	0	774	727	634	2061	
2282	0	773	727	634	2065	
2283	0	775	728	634	2069	
2284	0	774	727	635	2072	
2285	0	774	727	634	2070	
2286	0	773	727	635	2062	
2287	0	774	728	634	2051	
2288	0	775	729	634	2044	
2289	0	774	727	634	2042	
2290	0	774	728	634	2040	
2291	0	775	727	634	2043	
2292	0	774	728	634	2046	
2293	0	775	729	634	2049	
2294	0	774	728	634	2053	
2295	0	774	727	634	2051	
2296	0	774	727	634	2047	
2297	0	774	728	634	2038	
2298	0	775	728	635	2031	
2299	0	773	728	634	2032	
2300	0	774	728	633	2036	
2301	0	774	727	634	2042	
2302	0	775	729	633	2039	
2303	0	775	729	633	2040	
2304	0	774	728	634	2042	
2305	0	776	728	634	2043	
2306	0	775	728	633	2045	
2307	0	775	728	634	2046	
2308	0	776	728	634	2046	
2309	0	775	728	634	2044	
2310	0	775	728	635	2046	
2311	0	775	728	633	2047	
2312	0	774	728	633	2053	
2313	0	775	728	634	2061	
2314	0	773	727	633	2064	
2315	0	776	728	633	2061	
2316	0	775	727	633	2059	
2317	0	775	728	633	2051	
2318	0	774	728	632	2050	
2319	0	774	729	633	2051	
2320	0	773	728	632	2050	
2321	0	774	728	632	2052	
2322	0	774	729	632	2055	
2323	0	775	729	632	2056	
2324	0	775	729	633	2059	
2325	0	774	728	633	2058	
2326	0	774	727	633	2063	
2327	0	774	729	633	2069	
2328	0	774	729	632	2070	
2329	0	774	729	633	2075	
2330	0	774	728	633	2074	
2331	0	775	727	634	2075	
2332	0	774	729	633	2076	
2333	0	774	729	632	2079	
2334	0	774	730	633	2084	
2335	0	774	730	632	2084	
2336	0	774	730	633	2083	
2337	0	773	730	633	2081	
2338	0	775	731	632	2078	
2339	0	775	729	633	2075	
2340	0	774	729	633	2070	
2341	0	774	729	633	2063	
2342	0	773	730	633	2060	
2343	0	773	730	633	2056	
2344	0	774	730	633	2058	
2345	0	773	728	633	2057	
2346	0	772	729	633	2058	
2347	0	771	730	633	2060	
2348	0	773	730	633	2057	
2349	0	773	729	633	2058	
2350	0	773	728	633	2053	
2351	0	772	728	633	2047	
2352	0	772	729	633	2039	
2353	0	773	729	632	2033	
2354	0	773	729	632	2033	
2355	0	773	729	632	2031	
2356	0	773	729	632	2033	
2357	0	773	730	632	2036	
2358	0	774	730	632	2044	
2359	0	774	731	633	2051	
2360	0	773	729	632	2052	
2361	0	774	729	632	2060	
2362	0	773	730	633	2063	
2363	0	774	731	632	2060	
2364	0	774	730	633	2055	
2365	0	774	730	632	2044	
2366	0	774	730	632	2036	
2367	0	773	731	632	2034	
2368	0	774	730	632	2038	
2369	0	774	730	633	2047	
2370	0	774	730	632	2051	
2371	0	774	729	632	2057	
2372	0	773	730	632	2061	
2373	0	773	730	633	2063	
2374	0	773	730	633	2064	
2375	0	773	730	632	2064	
2376	0	773	730	633	2066	
2377	0	773	731	633	2070	
2378	0	774	731	633	2069	
2379	0	774	730	633	2066	
2380	0	774	729	633	2058	
2381	0	774	729	633	2052	
2382	0	773	731	633	2044	
2383	0	774	730	632	2036	
2384	0	774	730	634	2027	
2385	0	773	729	633	2015	
2386	0	773	729	634	2003	
2387	0	773	730	633	1998	
2388	0	773	730	634	1996	
2389	0	773	729	633	1999	
2390	0	773	729	633	2009	
2391	0	773	729	633	2022	
2392	0	773	730	633	2035	
2393	0	773	730	634	2045	
2394	0	773	729	633	2048	
2395	0	773	730	633	2047	
2396	0	773	730	633	2050	
2397	0	774	730	633	2052	
2398	0	774	730	634	2051	
2399	0	774	730	633	2050	
2400	0	774	730	633	2045	
2401	0	773	730	633	2046	
2402	0	774	730	633	2047	
2403	0	773	730	633	2048	
2404	0	773	729	633	2046	
2405	0	773	730	633	2041	
2406	0	772	729	633	2036	
2407	0	774	730	633	2033	
2408	0	775	730	635	2032	
2409	0	775	729	633	2032	
2410	0	774	730	633	2031	
2411	0	774	730	634	2031	
2412	0	774	730	634	2031	
2413	0	773	730	633	2035	
2414	0	773	729	634	2035	
2415	0	774	729	633	2033	
2416	0	773	730	634	2033	
2417	0	775	730	634	2035	
2418	0	774	731	635	2038	
2419	0	774	729	634	2042	
2420	0	774	730	634	2047	
2421	0	775	730	634	2052	
2422	0	775	730	634	2057	
2423	0	775	731	633	2060	
2424	0	774	729	633	2058	
2425	0	774	731	634	2058	
2426	0	772	730	633	2054	
2427	0	774	730	634	2054	
2428	0	774	729	634	2052	
2429	0	774	730	634	2055	
2430	0	773	729	633	2055	
2431	0	775	729	633	2056	
2432	0	774	730	633	2055	
2433	0	774	730	633	2059	
2434	0	774	730	634	2059	
2435	0	773	730	633	2050	
2436	0	773	730	634	2041	
2437	0	774	731	634	2030	
2438	0	774	730	634	2020	
2439	0	774	730	634	2025	
2440	0	774	730	634	2030	
2441	0	774	730	634	2034	
2442	0	774	731	633	2032	
2443	0	774	730	633	2030	
2444	0	774	730	634	2029	
2445	0	773	729	633	2023	
2446	0	773	729	634	2023	
2447	0	774	730	633	2018	
2448	0	774	730	633	2018	
2449	0	775	730	634	2019	
2450	0	774	730	633	2017	
2451	0	773	730	633	2022	
2452	0	774	730	633	2023	
2453	0	774	730	633	2021	
2454	0	774	730	633	2023	
2455	0	773	729	633	2023	
2456	0	772	729	633	2026	
2457	0	773	730	633	2027	
2458	0	773	729	632	2026	
2459	0	774	730	633	2028	
2460	0	774	729	633	2023	
2461	0	773	729	634	2023	
2462	0	774	730	633	2021	
2463	0	774	730	634	2019	
2464	0	774	731	633	2020	
2465	0	774	729	632	2018	
2466	0	774	729	633	2020	
2467	0	775	730	632	2016	
2468	0	775	729	633	2012	
2469	0	775	730	633	2011	
2470	0	774	729	632	2009	
2471	0	774	729	633	2011	
2472	0	775	730	633	2009	
2473	0	774	729	632	2011	
2474	0	775	730	633	2014	
2475	0	774	729	632	2010	
2476	0	774	729	633	2011	
2477	0	774	729	632	2007	
2478	0	774	729	634	2006	
2479	0	774	729	634	2004	
2480	0	773	729	633	2001	
2481	0	774	728	634	2001	
2482	0	774	728	633	2000	
2483	0	774	729	633	2005	
2484	0	773	728	633	2007	
2485	0	774	729	633	2008	
2486	0	774	729	632	2004	
2487	0	773	729	633	2003	
2488	0	773	729	633	2002	
2489	0	773	728	632	1999	
2490	0	774	729	633	1999	
2491	0	776	728	632	1999	
2492	0	774	728	633	2000	
2493	0	773	729	632	2000	
2494	0	774	729	632	2006	
2495	0	773	729	632	2008	
2496	0	773	728	632	2008	
2497	0	773	728	633	2011	
2498	0	774	729	634	2015	
2499	0	773	728	633	2015	
2500	0	773	728	633	2010	
2501	0	775	729	632	2003	
2502	0	775	729	633	1997	
2503	0	774	729	632	1991	
2504	0	773	728	632	1995	
2505	0	773	729	633	2006	
2506	0	773	729	633	2021	
2507	0	773	729	633	2035	
2508	0	774	729	632	2040	
2509	0	774	728	633	2048	
2510	0	774	728	633	2049	
2511	0	774	728	633	2050	
2512	0	774	728	633	2050	
2513	0	774	728	633	2055	
2514	0	774	728	633	2063	
2515	0	774	728	634	2066	
2516	0	774	728	633	2062	
2517	0	773	729	633	2054	
2518	0	773	729	633	2050	
2519	0	774	728	633	2049	
2520	0	773	728	633	2047	
2521	0	773	728	633	2049	
2522	0	773	729	632	2050	
2523	0	773	729	634	2051	
2524	0	773	729	633	2056	
2525	0	773	729	633	2061	
2526	0	774	729	633	2067	
2527	0	774	729	633	2071	
2528	0	775	729	633	2075	
2529	0	774	729	633	2078	
2530	0	773	729	633	2083	
2531	0	773	728	634	2087	
2532	0	774	729	633	2088	
2533	0	774	729	633	2089	
2534	0	774	729	634	2088	
2535	0	773	728	632	2082	
2536	0	774	728	633	2080	
2537	0	774	730	633	2081	
2538	0	774	729	634	2082	
2539	0	774	727	633	2080	
2540	0	774	729	633	2080	
2541	0	773	729	633	2080	
2542	0	773	729	633	2077	
2543	0	775	729	634	2078	
2544	0	774	729	633	2073	
2545	0	775	728	634	2070	
2546	0	774	729	634	2072	
2547	0	775	729	633	2069	
2548	0	774	729	634	2069	
2549	0	774	728	633	2070	
2550	0	774	729	633	2066	
2551	0	774	728	634	2063	
2552	0	774	729	633	2060	
2553	0	774	729	633	2054	
2554	0	774	728	633	2051	
2555	0	773	729	633	2047	
2556	0	773	728	633	2042	
2557	0	773	729	633	2036	
2558	0	773	729	634	2038	
2559	0	773	728	633	2043	
2560	0	773	728	633	2045	
2561	0	773	729	634	2045	
2562	0	774	729	633	2041	
2563	0	773	729	633	2034	
2564	0	773	729	633	2026	
2565	0	774	729	633	2018	
2566	0	773	729	633	2008	
2567	0	773	729	633	2001	
2568	0	773	729	633	1995	
2569	0	773	728	632	1989	
2570	0	772	729	633	1980	
2571	0	773	729	632	1976	
2572	0	773	729	633	1973	
2573	0	774	730	633	1970	
2574	0	773	730	633	1968	
2575	0	772	729	633	1962	
2576	0	773	729	633	1950	
2577	0	774	729	633	1932	
2578	0	774	730	633	1918	
2579	0	773	728	632	1905	
2580	0	774	729	633	1897	
2581	0	773	729	633	1890	
2582	0	773	729	633	1885	
2583	0	774	729	634	1878	
2584	0	773	728	632	1871	
2585	0	774	730	633	1871	
2586	0	772	729	632	1879	
2587	0	773	729	632	1899	
2588	0	774	729	634	1920	
2589	0	775	730	633	1937	
2590	0	774	729	633	1948	
2591	0	773	729	633	1959	
2592	0	775	730	634	1966	
2593	0	775	730	634	1982	
2594	0	775	728	632	2000	
2595	0	774	730	633	2013	
2596	0	774	729	633	2030	
2597	0	773	729	633	2050	
2598	0	774	729	633	2072	
2599	0	773	728	632	2099	
2600	0	774	729	632	2130	
2601	0	774	729	632	2167	
2602	0	775	729	632	2208	
2603	0	775	730	632	2253	
2604	0	775	729	632	2297	
2605	0	775	730	633	2333	
2606	0	775	729	632	2368	
2607	0	775	730	633	2397	
2608	0	775	730	632	2421	
2609	0	775	730	632	2435	
2610	0	775	730	632	2435	
2611	0	775	729	633	2427	
2612	0	775	729	633	2414	
2613	0	775	730	632	2400	
2614	0	775	728	632	2388	
2615	0	775	730	632	2369	
2616	0	775	729	632	2351	
2617	0	775	729	632	2332	
2618	0	775	730	631	2312	
2619	0	775	729	632	2291	
2620	0	776	730	633	2270	
2621	0	774	730	632	2248	
2622	0	774	730	632	2226	
2623	0	775	730	633	2206	
2624	0	775	730	632	2190	
2625	0	775	730	632	2175	
2626	0	775	729	633	2166	
2627	0	775	730	633	2150	
2628	0	775	730	634	2136	
2629	0	775	730	633	2121	
2630	0	774	729	632	2100	
2631	0	774	729	632	2081	
2632	0	774	729	633	2064	
2633	0	775	729	633	2049	
2634	0	774	729	632	2039	
2635	0	774	730	633	2033	
2636	0	775	729	633	2024	
2637	0	773	729	633	2018	
2638	0	773	730	633	2019	
2639	0	772	729	633	2020	
2640	0	772	730	634	2019	
2641	0	771	732	633	2012	
2642	0	770	730	632	2014	
2643	0	771	730	634	2015	
2644	0	770	730	632	2019	
2645	0	770	731	633	2020	
2646	0	770	731	633	2020	
2647	0	770	731	633	2015	
2648	0	770	731	632	2008	
2649	0	769	731	632	2006	
2650	0	770	731	633	2003	
2651	0	770	731	633	2001	
2652	0	770	731	633	1998	
2653	0	771	732	632	1994	
2654	0	771	731	632	1993	
2655	0	771	731	633	1990	
2656	0	772	731	633	1991	
2657	0	772	731	634	1992	
2658	0	773	731	634	1996	
2659	0	773	731	633	1997	
2660	0	774	730	634	1998	
2661	0	775	730	634	1999	
2662	0	776	730	634	2003	
2663	0	776	730	633	2002	
2664	0	776	729	633	2001	
2665	0	777	730	634	1997	
2666	0	778	729	634	1997	
2667	0	778	729	635	1992	
2668	0	778	730	634	1987	
2669	0	777	729	633	1986	
2670	0	775	729	634	1980	
2671	0	775	729	635	1979	
2672	0	775	730	637	1977	
2673	0	774	729	634	1976	
2674	0	773	729	634	1975	
2675	0	774	730	635	1974	
2676	0	771	730	634	1972	
2677	0	772	729	634	1973	
2678	0	772	731	634	1978	
2679	0	771	730	635	1982	
2680	0	773	731	635	1983	
2681	0	771	731	634	1976	
2682	0	773	730	634	1971	
2683	0	773	731	635	1974	
2684	0	773	731	635	1987	
2685	0	772	730	634	1988	
2686	0	772	729	635	1983	
2687	0	771	730	635	1965	
2688	0	771	729	635	1949	
2689	0	771	730	635	1944	
2690	0	771	729	634	1952	
2691	0	771	730	635	1970	
2692	0	771	730	635	1985	
2693	0	771	729	635	2000	
2694	0	772	729	635	2011	
2695	0	772	729	634	2016	
2696	0	772	729	635	2024	
2697	0	773	730	634	2028	
2698	0	773	730	635	2034	
2699	0	774	730	634	2036	
2700	0	773	729	633	2035	
2701	0	774	730	634	2036	
2702	0	775	731	634	2033	
2703	0	775	730	634	2030	
2704	0	775	730	633	2024	
2705	0	776	730	634	2022	
2706	0	776	732	633	2015	
2707	0	776	729	633	2011	
2708	0	776	729	635	2004	
2709	0	776	730	634	2004	
2710	0	776	730	633	1996	
2711	0	775	730	634	1992	
2712	0	775	730	634	1986	
2713	0	774	730	634	1984	
2714	0	773	730	633	1983	
2715	0	775	731	633	1988	
2716	0	774	730	633	1989	
2717	0	774	731	633	1991	
2718	0	774	731	634	1993	
2719	0	773	730	633	1996	
2720	0	774	730	633	2000	
2721	0	774	730	633	2003	
2722	0	774	730	633	2002	
2723	0	774	730	634	1997	
2724	0	772	730	633	1994	
2725	0	773	730	633	1990	
2726	0	773	730	633	1990	
2727	0	773	731	632	1993	
2728	0	773	731	631	1993	
2729	0	772	731	632	1995	
2730	0	774	731	632	1998	
2731	0	774	731	632	2000	
2732	0	774	731	633	1998	
2733	0	774	731	633	1990	
2734	0	773	730	633	1984	
2735	0	773	730	632	1980	
2736	0	773	731	632	1983	
2737	0	774	730	633	1986	
2738	0	774	730	632	1991	
2739	0	774	730	632	1995	
2740	0	774	730	632	1997	
2741	0	774	730	632	1996	
2742	0	773	730	632	1992	
2743	0	774	730	633	1992	
2744	0	773	730	632	1991	
2745	0	773	731	632	1990	
2746	0	773	730	632	1990	
2747	0	772	730	632	1991	
2748	0	773	731	632	1990	
2749	0	772	731	632	1990	
2750	0	773	731	632	1991	
2751	0	773	731	632	1993	
2752	0	773	730	632	1994	
2753	0	773	731	632	1995	
2754	0	773	731	632	1997	
2755	0	773	731	632	1997	
2756	0	773	731	632	1996	
2757	0	773	731	632	1993	
2758	0	773	731	632	1992	
2759	0	772	731	632	1990	
2760	0	772	731	632	1988	
2761	0	773	731	632	1987	
2762	0	773	730	631	1989	
2763	0	773	731	633	1993	
2764	0	773	730	633	1999	
2765	0	772	730	632	2000	
2766	0	773	730	632	2000	
2767	0	772	730	632	1998	
2768	0	774	731	633	1997	
2769	0	773	730	632	1993	
2770	0	774	730	632	1990	
2771	0	774	731	632	1991	
2772	0	774	731	633	1990	
2773	0	774	730	634	1989	
2774	0	774	730	633	1991	
2775	0	773	730	633	1986	
2776	0	774	730	632	1989	
2777	0	774	730	633	1989	
2778	0	774	729	633	1987	
2779	0	774	730	633	1989	
2780	0	773	729	632	1981	
2781	0	773	729	631	1977	
2782	0	774	730	635	1963	
2783	0	773	730	633	1947	
2784	0	773	729	633	1936	
2785	0	775	730	634	1933	
2786	0	775	731	633	1928	
2787	0	775	730	633	1930	
2788	0	775	730	633	1940	
2789	0	774	730	633	1952	
2790	0	775	730	634	1965	
2791	0	774	731	633	1974	
2792	0	773	729	633	1984	
2793	0	775	730	633	1994	
2794	0	773	729	633	2000	
2795	0	773	730	633	2005	
2796	0	776	730	632	2002	
2797	0	775	730	632	2000	
2798	0	775	730	633	2001	
2799	0	774	730	632	2000	
2800	0	775	730	633	2006	
2801	0	774	729	633	2004	
2802	0	774	729	633	2007	
2803	0	775	729	633	2008	
2804	0	774	730	632	2005	
2805	0	774	730	633	2000	
2806	0	774	731	633	1988	
2807	0	773	728	633	1981	
2808	0	774	730	633	1974	
2809	0	774	730	633	1977	
2810	0	774	730	633	1978	
2811	0	773	729	632	1979	
2812	0	774	729	633	1975	
2813	0	773	730	633	1971	
2814	0	774	729	633	1968	
2815	0	773	729	633	1965	
2816	0	773	730	633	1966	
2817	0	773	729	634	1966	
2818	0	773	730	634	1967	
2819	0	773	729	633	1970	
2820	0	772	729	633	1975	
2821	0	773	729	633	1979	
2822	0	773	730	634	1979	
2823	0	774	730	635	1974	
2824	0	773	729	634	1968	
2825	0	773	730	634	1958	
2826	0	773	730	633	1951	
2827	0	772	730	634	1943	
2828	0	773	731	636	1940	
2829	0	773	731	634	1942	
2830	0	773	730	633	1949	
2831	0	773	730	633	1959	
2832	0	773	730	633	1964	
2833	0	774	731	634	1968	
2834	0	773	731	633	1973	
2835	0	773	730	633	1973	
2836	0	774	730	633	1972	
2837	0	774	730	633	1972	
2838	0	773	731	633	1973	
2839	0	773	731	633	1974	
2840	0	772	730	633	1972	
2841	0	774	731	633	1970	
2842	0	773	730	633	1971	
2843	0	774	731	633	1970	
2844	0	773	730	633	1970	
2845	0	773	731	633	1972	
2846	0	774	732	634	1972	
2847	0	774	731	633	1970	
2848	0	773	731	634	1966	
2849	0	772	731	633	1964	
2850	0	773	732	633	1963	
2851	0	773	733	633	1957	
2852	0	773	731	632	1951	
2853	0	773	731	634	1949	
2854	0	773	731	633	1949	
2855	0	774	732	633	1951	
2856	0	772	732	633	1953	
2857	0	772	730	633	1955	
2858	0	773	731	634	1959	
2859	0	773	731	632	1956	
2860	0	772	731	632	1946	
2861	0	772	731	632	1937	
2862	0	772	731	633	1931	
2863	0	771	732	634	1932	
2864	0	773	730	632	1927	
2865	0	773	730	632	1923	
2866	0	773	730	632	1928	
2867	0	772	730	632	1931	
2868	0	773	731	634	1939	
2869	0	773	731	632	1947	
2870	0	773	731	632	1950	
2871	0	773	731	632	1957	
2872	0	773	731	632	1963	
2873	0	773	731	633	1971	
2874	0	773	731	632	1975	
2875	0	772	731	631	1977	
2876	0	772	731	631	1979	
2877	0	772	731	632	1979	
2878	0	772	731	633	1979	
2879	0	773	731	632	1979	
2880	0	773	731	631	1981	
2881	0	772	730	632	1979	
2882	0	773	731	632	1975	
2883	0	773	731	633	1968	
2884	0	772	731	632	1953	
2885	0	773	731	632	1941	
2886	0	773	731	631	1939	
2887	0	773	731	632	1946	
2888	0	772	731	634	1949	
2889	0	773	731	631	1956	
2890	0	773	731	632	1961	
2891	0	772	731	632	1963	
2892	0	773	731	632	1965	
2893	0	772	731	633	1968	
2894	0	773	731	632	1969	
2895	0	773	731	632	1969	
2896	0	773	731	631	1973	
2897	0	773	730	632	1977	
2898	0	772	731	633	1984	
2899	0	773	730	632	1986	
2900	0	773	731	632	1983	
2901	0	773	730	632	1976	
2902	0	773	730	633	1975	
2903	0	773	731	633	1973	
2904	0	773	731	633	1980	
2905	0	772	731	632	1983	
2906	0	773	731	632	1982	
2907	0	773	731	632	1986	
2908	0	774	731	633	1990	
2909	0	773	730	632	1993	
2910	0	773	731	632	1996	
2911	0	773	731	633	2003	
2912	0	773	730	633	2015	
2913	0	772	730	634	2029	
2914	0	771	730	633	2041	
2915	0	772	730	633	2049	
2916	0	772	730	632	2047	
2917	0	772	731	633	2034	
2918	0	773	730	633	2020	
2919	0	773	730	633	2009	
2920	0	773	730	633	1999	
2921	0	773	730	633	1999	
2922	0	773	730	634	2002	
2923	0	773	731	633	2010	
2924	0	773	730	632	2019	
2925	0	774	730	633	2022	
2926	0	773	731	632	2031	
2927	0	774	731	633	2038	
2928	0	774	731	633	2046	
2929	0	773	730	633	2060	
2930	0	774	730	633	2075	
2931	0	774	730	633	2085	
2932	0	774	731	633	2089	
2933	0	772	730	633	2092	
2934	0	773	730	633	2097	
2935	0	774	731	633	2100	
2936	0	773	730	632	2101	
2937	0	773	730	634	2098	
2938	0	773	731	633	2094	
2939	0	773	730	633	2090	
2940	0	773	731	632	2086	
2941	0	773	730	633	2085	
2942	0	774	730	634	2081	
2943	0	773	730	633	2081	
2944	0	773	730	633	2084	
2945	0	772	730	633	2087	
2946	0	772	731	632	2089	
2947	0	772	730	634	2091	
2948	0	772	730	634	2093	
2949	0	772	730	633	2098	
2950	0	772	730	633	2106	
2951	0	772	731	633	2116	
2952	0	772	730	634	2123	
2953	0	772	731	634	2128	
2954	0	773	731	633	2132	
2955	0	773	730	634	2133	
2956	0	773	731	633	2130	
2957	0	773	730	635	2126	
2958	0	772	731	635	2125	
2959	0	773	730	633	2118	
2960	0	773	730	633	2113	
2961	0	773	730	633	2109	
2962	0	775	730	633	2111	
2963	0	775	731	633	2114	
2964	0	774	730	632	2114	
2965	0	774	730	633	2115	
2966	0	773	730	633	2113	
2967	0	774	730	634	2117	
2968	0	774	731	634	2115	
2969	0	774	731	633	2109	
2970	0	773	731	633	2098	
2971	0	773	731	633	2086	
2972	0	772	731	633	2083	
2973	0	772	731	634	2085	
2974	0	774	730	633	2090	
2975	0	774	730	633	2095	
2976	0	774	730	634	2098	
2977	0	774	731	634	2105	
2978	0	774	731	634	2111	
2979	0	774	731	633	2117	
2980	0	773	730	634	2120	
2981	0	773	730	634	2120	
2982	0	773	730	634	2122	
2983	0	774	731	634	2121	
2984	0	774	730	633	2125	
2985	0	774	731	634	2127	
2986	0	774	731	633	2134	
2987	0	774	731	633	2136	
2988	0	773	731	634	2133	
2989	0	773	730	633	2130	
2990	0	772	730	633	2125	
2991	0	772	731	632	2121	
2992	0	771	731	633	2118	
2993	0	770	730	633	2111	
2994	0	772	731	633	2113	
2995	0	770	730	633	2113	
2996	0	770	730	633	2114	
2997	0	772	731	634	2114	
2998	0	772	730	634	2118	
2999	0	773	730	633	2116	
3000	0	776	730	634	2113	
3001	0	776	731	632	2108	
3002	0	778	730	633	2107	
3003	0	778	730	633	2111	
3004	0	777	730	633	2108	
3005	0	778	730	634	2108	
3006	0	777	730	633	2102	
3007	0	779	729	633	2096	
3008	0	778	729	634	2093	
3009	0	776	729	633	2087	
3010	0	775	729	634	2087	
3011	0	773	729	634	2084	
3012	0	776	729	633	2077	
3013	0	774	729	634	2067	
3014	0	774	730	634	2057	
3015	0	772	730	633	2048	
3016	0	773	729	632	2049	
3017	0	774	731	633	2056	
3018	0	773	731	633	2066	
3019	0	774	731	634	2078	
3020	0	774	730	633	2088	
3021	0	773	730	633	2098	
3022	0	773	730	633	2104	
3023	0	774	731	633	2104	
3024	0	774	731	632	2103	
3025	0	774	730	633	2106	
3026	0	774	730	632	2108	
3027	0	774	731	633	2109	
3028	0	773	731	633	2099	
3029	0	774	731	633	2094	
3030	0	774	730	633	2088	
3031	0	773	730	633	2093	
3032	0	774	730	633	2098	
3033	0	774	730	633	2104	
3034	0	773	730	633	2108	
3035	0	774	731	634	2110	
3036	0	774	731	633	2109	
3037	0	773	730	633	2111	
3038	0	771	730	634	2117	
3039	0	772	730	632	2119	
3040	0	773	730	633	2117	
3041	0	772	730	633	2113	
3042	0	771	730	633	2113	
3043	0	772	730	634	2111	
3044	0	773	730	632	2112	
3045	0	774	730	632	2107	
3046	0	774	730	632	2104	
3047	0	773	730	633	2099	
3048	0	773	730	633	2093	
3049	0	774	730	632	2092	
3050	0	774	730	633	2094	
3051	0	774	730	633	2095	
3052	0	775	729	633	2096	
3053	0	775	729	633	2098	
3054	0	775	729	632	2099	
3055	0	774	729	632	2098	
3056	0	774	729	632	2096	
3057	0	773	730	633	2094	
3058	0	773	730	633	2095	
3059	0	774	730	632	2098	
3060	0	774	729	632	2094	
3061	0	775	729	632	2089	
3062	0	776	729	633	2076	
3063	0	775	729	633	2066	
3064	0	775	729	632	2062	
3065	0	775	730	633	2062	
3066	0	775	730	632	2064	
3067	0	775	729	633	2066	
3068	0	774	730	633	2068	
3069	0	774	729	632	2070	
3070	0	774	731	633	2075	
3071	0	774	730	632	2074	
3072	0	773	730	632	2076	
3073	0	774	731	633	2081	
3074	0	773	731	631	2084	
3075	0	774	731	633	2090	
3076	0	773	733	632	2091	
3077	0	774	731	632	2092	
3078	0	774	731	632	2094	
3079	0	773	730	632	2094	
3080	0	774	731	632	2097	
3081	0	775	731	631	2095	
3082	0	774	730	632	2091	
3083	0	774	731	632	2086	
3084	0	773	730	632	2078	
3085	0	774	731	633	2072	
3086	0	774	731	631	2068	
3087	0	773	730	633	2065	
3088	0	772	731	633	2065	
3089	0	773	731	633	2067	
3090	0	772	730	633	2067	
3091	0	773	730	633	2075	
3092	0	774	731	633	2076	
3093	0	772	730	633	2082	
3094	0	774	731	633	2084	
3095	0	774	730	633	2082	
3096	0	774	730	633	2085	
3097	0	774	731	633	2085	
3098	0	773	730	633	2089	
3099	0	774	731	633	2090	
3100	0	773	730	633	2087	
3101	0	773	730	632	2088	
3102	0	774	731	633	2083	
3103	0	772	730	633	2083	
3104	0	774	731	633	2082	
3105	0	773	730	633	2082	
3106	0	774	730	633	2082	
3107	0	774	730	633	2076	
3108	0	774	730	633	2071	
3109	0	774	731	633	2067	
3110	0	773	730	633	2062	
3111	0	774	730	633	2062	
3112	0	774	731	633	2061	
3113	0	774	731	633	2059	
3114	0	774	731	633	2062	
3115	0	773	730	633	2065	
3116	0	773	731	633	2072	
3117	0	775	731	634	2073	
3118	0	775	730	632	2070	
3119	0	773	730	633	2064	
3120	0	774	731	633	2065	
3121	0	774	732	633	2066	
3122	0	773	730	633	2074	
3123	0	773	730	633	2077	
3124	0	773	731	634	2081	
3125	0	773	730	633	2082	
3126	0	773	731	633	2083	
3127	0	774	731	633	2084	
3128	0	773	731	633	2084	
3129	0	774	731	633	2083	
3130	0	773	730	633	2080	
3131	0	773	730	633	2081	
3132	0	774	730	634	2082	
3133	0	774	730	634	2082	
3134	0	774	731	635	2083	
3135	0	773	731	634	2080	
3136	0	773	731	634	2080	
3137	0	773	731	634	2079	
3138	0	773	731	634	2077	
3139	0	773	731	633	2080	
3140	0	772	731	634	2083	
3141	0	775	730	633	2082	
3142	0	773	730	634	2086	
3143	0	773	731	634	2087	
3144	0	773	731	634	2088	
3145	0	773	730	634	2086	
3146	0	772	730	634	2091	
3147	0	773	731	634	2088	
3148	0	773	731	634	2079	
3149	0	774	731	634	2082	
3150	0	774	730	633	2079	
3151	0	774	730	634	2076	
3152	0	774	729	634	2072	
3153	0	774	731	634	2066	
3154	0	774	729	633	2056	
3155	0	773	731	634	2049	
3156	0	773	731	634	2041	
3157	0	774	730	634	2040	
3158	0	775	731	634	2048	
3159	0	773	730	633	2049	
3160	0	773	731	634	2047	
3161	0	775	731	634	2044	
3162	0	774	731	633	2041	
3163	0	774	730	633	2046	
3164	0	774	730	633	2056	
3165	0	774	730	634	2066	
3166	0	773	730	633	2071	
3167	0	774	729	633	2071	
3168	0	774	730	634	2073	
3169	0	773	730	633	2072	
3170	0	772	730	634	2075	
3171	0	774	732	633	2078	
3172	0	774	730	633	2082	
3173	0	774	731	633	2090	
3174	0	773	730	632	2093	
3175	0	772	730	633	2095	
3176	0	773	731	633	2099	
3177	0	774	731	634	2098	
3178	0	774	731	634	2101	
3179	0	773	730	632	2099	
3180	0	772	731	634	2102	
3181	0	774	732	633	2097	
3182	0	774	729	633	2093	
3183	0	773	731	634	2087	
3184	0	773	730	633	2087	
3185	0	772	730	634	2085	
3186	0	775	729	633	2078	
3187	0	774	730	633	2070	
3188	0	773	730	633	2062	
3189	0	773	731	634	2055	
3190	0	773	730	633	2048	
3191	0	774	731	633	2053	
3192	0	774	731	634	2060	
3193	0	774	730	633	2071	
3194	0	774	730	634	2081	
3195	0	773	730	633	2085	
3196	0	774	729	633	2088	
3197	0	773	729	633	2088	
3198	0	774	731	634	2090	
3199	0	773	730	633	2088	
3200	0	772	731	634	2089	
3201	0	774	730	634	2081	
3202	0	773	730	633	2078	
3203	0	773	730	634	2077	
3204	0	774	730	634	2076	
3205	0	773	729	634	2076	
3206	0	773	730	634	2083	
3207	0	774	731	634	2089	
3208	0	774	730	634	2084	
3209	0	774	731	634	2088	
3210	0	772	729	633	2088	
3211	0	773	730	633	2083	
3212	0	773	729	633	2076	
3213	0	774	730	634	2067	
3214	0	773	730	633	2053	
3215	0	773	730	633	2043	
3216	0	773	730	633	2042	
3217	0	773	731	633	2044	
3218	0	773	730	634	2050	
3219	0	773	730	634	2052	
3220	0	772	729	633	2054	
3221	0	772	730	633	2058	
3222	0	773	730	634	2067	
3223	0	774	730	634	2074	
3224	0	773	729	634	2084	
3225	0	773	730	634	2092	
3226	0	776	730	634	2095	
3227	0	775	728	633	2096	
3228	0	775	729	634	2095	
3229	0	774	729	633	2092	
3230	0	774	729	634	2092	
3231	0	774	729	634	2092	
3232	0	774	730	634	2092	
3233	0	774	730	634	2091	
3234	0	775	731	633	2092	
3235	0	774	730	633	2089	
3236	0	774	730	633	2087	
3237	0	774	730	634	2087	
3238	0	773	730	634	2086	
3239	0	775	730	634	2087	
3240	0	774	730	633	2083	
3241	0	775	730	633	2084	
3242	0	775	730	633	2085	
3243	0	773	730	633	2083	
3244	0	773	731	633	2082	
3245	0	772	730	633	2073	
3246	0	773	730	633	2070	
3247	0	775	730	634	2070	
3248	0	773	730	633	2067	
3249	0	774	730	634	2064	
3250	0	774	729	633	2051	
3251	0	774	730	633	2038	
3252	0	774	730	634	2027	
3253	0	774	730	633	2021	
3254	0	774	730	634	2024	
3255	0	773	730	633	2027	
3256	0	774	730	633	2035	
3257	0	774	731	633	2044	
3258	0	774	731	633	2055	
3259	0	775	731	633	2062	
3260	0	775	730	633	2067	
3261	0	774	730	633	2073	
3262	0	774	730	634	2075	
3263	0	773	730	634	2073	
3264	0	774	731	634	2070	
3265	0	774	730	633	2066	
3266	0	774	730	633	2063	
3267	0	774	730	633	2062	
3268	0	774	730	634	2062	
3269	0	773	730	633	2061	
3270	0	773	730	633	2062	
3271	0	774	730	633	2065	
3272	0	773	730	633	2071	
3273	0	773	731	632	2077	
3274	0	774	730	632	2080	
3275	0	772	731	633	2085	
3276	0	774	729	633	2083	
3277	0	775	730	632	2084	
3278	0	773	730	633	2089	
3279	0	774	731	633	2087	
3280	0	773	730	633	2086	
3281	0	773	730	633	2088	
3282	0	774	731	633	2093	
3283	0	774	731	633	2088	
3284	0	774	731	634	2082	
3285	0	773	730	632	2072	
3286	0	773	730	633	2061	
3287	0	774	731	633	2056	
3288	0	774	731	633	2050	
3289	0	775	731	633	2046	
3290	0	773	730	632	2039	
3291	0	774	730	632	2037	
3292	0	774	731	631	2040	
3293	0	774	731	632	2042	
3294	0	774	730	631	2044	
3295	0	773	731	631	2044	
3296	0	772	730	632	2047	
3297	0	774	731	632	2055	
3298	0	773	731	632	2063	
3299	0	774	731	632	2068	
3300	0	775	730	632	2069	
3301	0	775	730	632	2068	
3302	0	774	731	633	2066	
3303	0	775	730	632	2057	
3304	0	775	731	633	2053	
3305	0	775	731	632	2048	
3306	0	774	730	632	2049	
3307	0	774	730	632	2053	
3308	0	775	731	632	2060	
3309	0	775	730	632	2065	
3310	0	774	730	632	2068	
3311	0	774	730	632	2070	
3312	0	774	730	632	2073	
3313	0	773	729	632	2073	
3314	0	773	730	632	2070	
3315	0	773	730	632	2068	
3316	0	774	729	632	2067	
3317	0	774	730	631	2066	
3318	0	773	730	633	2063	
3319	0	772	730	632	2062	
3320	0	772	730	632	2058	
3321	0	773	730	633	2056	
3322	0	773	730	631	2055	
3323	0	773	729	633	2046	
3324	0	773	730	633	2036	
3325	0	774	730	633	2027	
3326	0	775	730	633	2026	
3327	0	775	729	632	2032	
3328	0	774	729	632	2032	
3329	0	774	730	633	2032	
3330	0	774	730	633	2029	
3331	0	775	730	632	2027	
3332	0	775	730	632	2028	
3333	0	773	729	633	2030	
3334	0	773	730	632	2038	
3335	0	774	729	632	2047	
3336	0	775	730	633	2059	
3337	0	775	730	632	2069	
3338	0	773	730	632	2081	
3339	0	773	730	633	2086	
3340	0	773	729	633	2084	
3341	0	774	729	632	2082	
3342	0	775	730	632	2078	
3343	0	775	730	633	2078	
3344	0	774	730	632	2075	
3345	0	774	730	633	2074	
3346	0	775	730	633	2075	
3347	0	776	730	632	2074	
3348	0	774	729	633	2075	
3349	0	773	729	632	2074	
3350	0	773	730	632	2070	
3351	0	774	730	632	2065	
3352	0	774	730	632	2060	
3353	0	773	730	633	2057	
3354	0	774	730	633	2052	
3355	0	774	730	633	2046	
3356	0	775	730	633	2040	
3357	0	775	730	632	2033	
3358	0	774	730	633	2035	
3359	0	773	730	633	2038	
3360	0	774	731	633	2047	
3361	0	775	729	633	2050	
3362	0	774	730	632	2053	
3363	0	774	730	633	2054	
3364	0	773	730	633	2050	
3365	0	775	730	632	2048	
3366	0	775	730	633	2047	
3367	0	775	730	632	2052	
3368	0	775	730	633	2048	
3369	0	774	730	633	2045	
3370	0	774	730	633	2043	
3371	0	774	730	633	2041	
3372	0	776	730	632	2042	
3373	0	775	729	633	2042	
3374	0	774	730	633	2042	
3375	0	774	730	634	2044	
3376	0	775	730	633	2048	
3377	0	775	730	633	2055	
3378	0	773	730	633	2064	
3379	0	774	730	633	2068	
3380	0	774	730	633	2071	
3381	0	774	729	633	2070	
3382	0	775	729	632	2069	
3383	0	775	729	633	2066	
3384	0	774	729	633	2067	
3385	0	774	730	634	2068	
3386	0	775	729	634	2066	
3387	0	776	729	633	2067	
3388	0	773	729	633	2064	
3389	0	773	730	634	2065	
3390	0	772	731	633	2066	
3391	0	774	730	633	2066	
3392	0	775	730	634	2062	
3393	0	773	729	634	2052	
3394	0	775	730	634	2046	
3395	0	774	730	633	2038	
3396	0	774	730	633	2036	
3397	0	775	731	634	2038	
3398	0	774	729	633	2040	
3399	0	775	730	633	2046	
3400	0	775	729	633	2049	
3401	0	775	729	633	2057	
3402	0	775	730	633	2061	
3403	0	774	730	633	2062	
3404	0	774	730	633	2061	
3405	0	775	730	632	2057	
3406	0	775	730	632	2057	
3407	0	775	730	632	2057	
3408	0	774	730	633	2050	
3409	0	775	730	633	2036	
3410	0	774	730	633	2016	
3411	0	774	730	633	1997	
3412	0	775	729	633	1985	
3413	0	774	729	633	1981	
3414	0	775	730	633	1983	
3415	0	775	729	633	1987	
3416	0	775	729	633	1993	
3417	0	775	730	633	2002	
3418	0	775	729	634	2011	
3419	0	776	730	634	2017	
3420	0	776	730	634	2022	
3421	0	776	730	633	2030	
3422	0	776	730	633	2035	
3423	0	775	730	633	2034	
3424	0	775	730	634	2030	
3425	0	775	730	633	2021	
3426	0	776	730	633	2018	
3427	0	776	731	633	2015	
3428	0	775	730	634	2012	
3429	0	774	730	633	2006	
3430	0	774	731	634	2008	
3431	0	776	731	635	2008	
3432	0	776	729	633	2009	
3433	0	775	729	634	2009	
3434	0	775	730	633	2008	
3435	0	776	730	634	2005	
3436	0	776	730	635	2003	
3437	0	775	729	632	2009	
3438	0	774	729	633	2025	
3439	0	775	730	634	2039	
3440	0	774	729	633	2049	
3441	0	775	729	633	2060	
3442	0	776	730	634	2061	
3443	0	775	729	633	2055	
3444	0	775	729	633	2046	
3445	0	775	730	634	2044	
3446	0	776	731	633	2035	
3447	0	777	731	633	2030	
3448	0	776	730	633	2027	
3449	0	775	730	633	2025	
3450	0	775	731	633	2026	
3451	0	776	730	635	2026	
3452	0	776	730	633	2028	
3453	0	776	730	633	2035	
3454	0	775	729	633	2040	
3455	0	775	730	633	2050	
3456	0	775	730	634	2054	
3457	0	776	729	632	2063	
3458	0	774	730	632	2077	
3459	0	775	729	632	2074	
3460	0	775	730	633	2072	
3461	0	776	730	633	2059	
3462	0	775	731	633	2053	
3463	0	775	730	633	2049	
3464	0	776	729	632	2047	
3465	0	776	730	633	2050	
3466	0	775	729	632	2049	
3467	0	776	728	632	2053	
3468	0	775	729	633	2056	
3469	0	776	730	633	2055	
3470	0	776	729	632	2053	
3471	0	776	730	632	2055	
3472	0	777	730	633	2061	
3473	0	775	729	632	2063	
3474	0	776	731	633	2071	
3475	0	776	730	632	2076	
3476	0	777	730	632	2083	
3477	0	776	730	633	2089	
3478	0	774	728	633	2093	
3479	0	776	730	633	2098	
3480	0	775	730	632	2096	
3481	0	776	729	633	2097	
3482	0	776	730	633	2100	
3483	0	775	728	632	2098	
3484	0	776	729	632	2098	
3485	0	775	729	633	2099	
3486	0	777	731	633	2101	
3487	0	776	729	632	2100	
3488	0	777	729	632	2090	
3489	0	776	729	632	2078	
3490	0	776	730	632	2071	
3491	0	776	731	632	2063	
3492	0	776	729	633	2066	
3493	0	777	730	633	2072	
3494	0	777	729	632	2076	
3495	0	776	729	633	2084	
3496	0	776	730	632	2089	
3497	0	776	729	632	2091	
3498	0	775	728	632	2094	
3499	0	776	729	633	2091	
3500	0	776	729	632	2084	
3501	0	777	729	632	2085	
3502	0	776	729	633	2088	
3503	0	775	728	633	2093	
3504	0	776	729	633	2096	
3505	0	774	729	633	2093	
3506	0	776	729	632	2092	
3507	0	776	729	633	2086	
3508	0	775	729	633	2078	
3509	0	776	729	633	2075	
3510	0	774	728	632	2069	
3511	0	775	728	632	2069	
3512	0	776	729	632	2069	
3513	0	776	729	633	2073	
3514	0	775	728	632	2074	
3515	0	775	729	632	2079	
3516	0	775	729	633	2076	
3517	0	775	729	632	2071	
3518	0	775	728	632	2069	
3519	0	776	729	633	2067	
3520	0	777	729	632	2064	
3521	0	778	729	632	2058	
3522	0	777	729	633	2052	
3523	0	775	728	633	2045	
3524	0	777	729	633	2038	
3525	0	776	728	632	2036	
3526	0	776	728	633	2040	
3527	0	777	729	634	2047	
3528	0	776	728	633	2044	
3529	0	777	728	633	2049	
3530	0	776	728	632	2054	
3531	0	777	728	632	2060	
3532	0	775	729	633	2067	
3533	0	774	728	633	2069	
3534	0	775	729	633	2071	
3535	0	774	728	632	2071	
3536	0	775	728	632	2068	
3537	0	775	729	633	2068	
3538	0	776	729	633	2069	
3539	0	775	728	633	2061	
3540	0	776	729	634	2054	
3541	0	776	729	635	2036	
3542	0	776	729	633	2021	
3543	0	774	728	633	2004	
3544	0	776	729	633	1987	
3545	0	774	729	632	1963	
3546	0	775	728	632	1940	
3547	0	776	729	633	1919	
3548	0	776	728	633	1896	
3549	0	776	729	633	1884	
3550	0	777	728	633	1876	
3551	0	776	728	633	1869	
3552	0	776	729	633	1868	
3553	0	777	729	633	1877	
3554	0	776	728	632	1894	
3555	0	776	728	632	1921	
3556	0	776	728	631	1950	
3557	0	777	729	633	1974	
3558	0	775	728	633	1990	
3559	0	776	729	633	1999	
3560	0	775	728	632	2004	
3561	0	776	728	632	2016	
3562	0	777	729	634	2025	
3563	0	776	729	633	2034	
3564	0	776	729	633	2046	
3565	0	776	729	632	2060	
3566	0	776	729	632	2082	
3567	0	778	730	633	2112	
3568	0	777	729	633	2146	
3569	0	776	729	633	2185	
3570	0	777	729	633	2226	
3571	0	778	729	633	2271	
3572	0	778	729	633	2314	
3573	0	778	729	633	2361	
3574	0	777	729	633	2404	
3575	0	777	729	633	2442	
3576	0	777	729	633	2475	
3577	0	777	730	633	2494	
3578	0	776	729	633	2505	
3579	0	776	729	633	2498	
3580	0	776	729	633	2484	
3581	0	776	729	632	2463	
3582	0	777	730	632	2437	
3583	0	776	730	632	2412	
3584	0	776	729	633	2386	
3585	0	777	730	633	2367	
3586	0	777	730	632	2344	
3587	0	777	730	633	2320	
3588	0	777	729	633	2290	
3589	0	777	729	633	2263	
3590	0	777	729	633	2240	
3591	0	777	730	632	2217	
3592	0	776	729	633	2194	
3593	0	776	729	633	2175	
3594	0	776	729	633	2157	
3595	0	777	729	633	2142	
3596	0	777	730	633	2124	
3597	0	777	729	633	2106	
3598	0	776	729	633	2095	
3599	0	777	729	633	2076	
3600	0	778	729	633	2063	
3601	0	778	729	633	2052	
3602	0	778	730	633	2047	
3603	0	778	730	633	2040	
3604	0	777	729	633	2034	
3605	0	777	729	633	2031	
3606	0	775	730	632	2024	
3607	0	775	729	632	2022	
3608	0	774	729	633	2022	
3609	0	774	730	632	2021	
3610	0	774	729	632	2025	
3611	0	773	730	632	2029	
3612	0	774	731	633	2033	
3613	0	772	730	633	2032	
3614	0	773	730	632	2032	
3615	0	773	730	633	2037	
3616	0	774	731	633	2034	
3617	0	773	730	633	2037	
3618	0	774	731	633	2039	
3619	0	774	730	633	2039	
3620	0	774	730	633	2036	
3621	0	775	733	632	2032	
3622	0	775	730	632	2031	
3623	0	775	731	633	2028	
3624	0	775	730	633	2027	
3625	0	777	729	633	2029	
3626	0	777	732	633	2029	
3627	0	778	731	632	2030	
3628	0	780	730	634	2026	
3629	0	780	730	633	2024	
3630	0	781	729	634	2027	
3631	0	782	730	633	2023	
3632	0	781	731	632	2023	
3633	0	782	730	633	2023	
3634	0	782	728	633	2021	
3635	0	782	729	633	2022	
3636	0	783	729	633	2025	
3637	0	782	730	634	2028	
3638	0	780	729	634	2028	
3639	0	780	728	633	2026	
3640	0	779	727	634	2027	
3641	0	778	730	633	2027	
3642	0	777	729	633	2024	
3643	0	777	730	634	2025	
3644	0	776	730	633	2021	
3645	0	776	729	633	2021	
3646	0	776	731	633	2019	
3647	0	777	730	633	2020	
3648	0	778	730	633	2019	
3649	0	776	730	633	2014	
3650	0	777	729	634	2014	
3651	0	776	731	634	2012	
3652	0	776	729	633	2010	
3653	0	776	730	634	2006	
3654	0	775	729	633	1995	
3655	0	775	729	634	1982	
3656	0	775	730	634	1975	
3657	0	776	730	634	1972	
3658	0	775	728	634	1978	
3659	0	775	729	635	1985	
3660	0	776	729	634	1991	
3661	0	776	729	635	2000	
3662	0	774	729	634	2006	
3663	0	776	729	634	2011	
3664	0	775	728	634	2010	
3665	0	775	728	634	2019	
3666	0	775	729	634	2026	
3667	0	775	729	633	2030	
3668	0	775	728	633	2034	
3669	0	776	729	634	2041	
3670	0	777	729	633	2047	
3671	0	776	728	633	2048	
3672	0	777	729	633	2048	
3673	0	778	729	634	2051	
3674	0	778	729	634	2051	
3675	0	777	729	633	2049	
3676	0	777	729	635	2046	
3677	0	778	730	633	2039	
3678	0	777	729	634	2029	
3679	0	777	729	634	2008	
3680	0	778	729	634	1988	
3681	0	778	729	635	1967	
3682	0	778	731	634	1955	
3683	0	777	729	634	1950	
3684	0	777	729	634	1953	
3685	0	777	728	634	1966	
3686	0	777	729	634	1979	
3687	0	776	731	634	1990	
3688	0	775	730	634	1997	
3689	0	775	729	634	2003	
3690	0	775	729	634	2014	
3691	0	776	730	635	2022	
3692	0	776	731	633	2029	
3693	0	776	730	634	2031	
3694	0	775	730	633	2031	
3695	0	776	729	634	2036	
3696	0	776	730	633	2039	
3697	0	775	731	633	2043	
3698	0	775	730	633	2049	
3699	0	776	730	633	2053	
3700	0	776	729	633	2052	
3701	0	776	730	633	2048	
3702	0	775	731	633	2046	
3703	0	775	730	633	2040	
3704	0	776	730	633	2042	
3705	0	776	730	633	2042	
3706	0	775	729	632	2044	
3707	0	775	730	632	2044	
3708	0	776	730	633	2036	
3709	0	776	729	633	2034	
3710	0	775	729	633	2027	
3711	0	776	729	633	2021	
3712	0	775	729	632	2016	
3713	0	776	730	633	2011	
3714	0	777	730	633	2008	
3715	0	775	729	633	2007	
3716	0	775	730	633	2009	
3717	0	775	730	633	2011	
3718	0	776	730	633	2017	
3719	0	776	730	633	2018	
3720	0	775	729	632	2015	
3721	0	775	730	633	2016	
3722	0	775	730	633	2016	
3723	0	776	730	634	2020	
3724	0	775	730	633	2020	
3725	0	775	729	633	2016	
3726	0	774	730	633	2016	
3727	0	775	730	633	2013	
3728	0	774	730	633	2010	
3729	0	775	731	633	2010	
3730	0	775	730	633	2004	
3731	0	774	731	632	2003	
3732	0	775	730	632	2002	
3733	0	774	730	633	2004	
3734	0	775	730	633	2006	
3735	0	774	729	633	2004	
3736	0	775	730	632	2005	
3737	0	775	730	633	2006	
3738	0	776	731	633	2007	
3739	0	776	731	633	2008	
3740	0	777	730	632	2010	
3741	0	774	731	632	2010	
3742	0	775	731	632	2008	
3743	0	774	730	633	2008	
3744	0	774	730	633	2003	
3745	0	774	730	633	2002	
3746	0	773	732	633	2000	
3747	0	775	732	632	2002	
3748	0	774	730	633	1996	
3749	0	776	730	633	1992	
3750	0	774	730	633	1991	
3751	0	775	731	633	1989	
3752	0	776	731	633	1986	
3753	0	776	730	634	1987	
3754	0	775	730	633	1983	
3755	0	775	729	633	1983	
3756	0	774	730	633	1983	
3757	0	775	731	633	1983	
3758	0	775	730	633	1984	
3759	0	775	729	633	1983	
3760	0	775	729	633	1983	
3761	0	775	730	633	1983	
3762	0	776	730	633	1982	
3763	0	776	729	633	1982	
3764	0	775	729	633	1978	
3765	0	775	728	634	1974	
3766	0	776	730	633	1968	
3767	0	776	729	632	1964	
3768	0	776	729	633	1968	
3769	0	776	729	632	1967	
3770	0	777	728	634	1971	
3771	0	777	729	632	1970	
3772	0	776	729	633	1973	
3773	0	776	729	633	1974	
3774	0	775	729	633	1975	
3775	0	776	728	633	1980	
3776	0	776	730	633	1981	
3777	0	776	730	632	1978	
3778	0	776	729	633	1975	
3779	0	776	729	633	1971	
3780	0	777	729	633	1963	
3781	0	776	729	633	1956	
3782	0	775	729	633	1952	
3783	0	774	728	633	1953	
3784	0	775	729	633	1955	
3785	0	774	729	633	1961	
3786	0	775	730	633	1968	
3787	0	775	730	633	1974	
3788	0	776	729	632	1980	
3789	0	776	730	633	1980	
3790	0	776	729	633	1984	
3791	0	775	730	633	1986	
3792	0	776	730	633	1989	
3793	0	776	729	633	1990	
3794	0	776	730	632	1987	
3795	0	776	730	633	1985	
3796	0	775	730	632	1985	
3797	0	776	731	633	1984	
3798	0	775	729	633	1984	
3799	0	775	730	632	1980	
3800	0	775	730	633	1975	
3801	0	774	731	632	1968	
3802	0	775	731	632	1956	
3803	0	776	730	632	1947	
3804	0	776	730	632	1938	
3805	0	776	730	632	1933	
3806	0	774	730	632	1928	
3807	0	775	731	631	1926	
3808	0	776	731	633	1927	
3809	0	775	730	631	1929	
3810	0	775	730	632	1936	
3811	0	776	731	632	1943	
3812	0	776	731	632	1948	
3813	0	775	731	632	1955	
3814	0	775	731	632	1956	
3815	0	775	729	633	1958	
3816	0	776	731	631	1957	
3817	0	776	731	632	1955	
3818	0	776	732	633	1952	
3819	0	776	730	632	1945	
3820	0	776	730	633	1945	
3821	0	777	731	632	1945	
3822	0	776	731	632	1944	
3823	0	777	731	632	1944	
3824	0	776	730	632	1943	
3825	0	776	730	632	1943	
3826	0	776	730	632	1935	
3827	0	775	730	632	1922	
3828	0	776	730	632	1912	
3829	0	775	729	632	1899	
3830	0	776	730	633	1900	
3831	0	777	730	633	1904	
3832	0	776	730	632	1908	
3833	0	777	730	633	1919	
3834	0	776	729	632	1926	
3835	0	776	730	633	1937	
3836	0	776	730	632	1942	
3837	0	777	730	632	1949	
3838	0	777	730	632	1958	
3839	0	776	730	632	1961	
3840	0	776	729	632	1966	
3841	0	777	729	633	1969	
3842	0	777	729	632	1968	
3843	0	777	730	633	1971	
3844	0	777	729	632	1971	
3845	0	776	728	633	1973	
3846	0	777	729	632	1970	
3847	0	777	729	632	1964	
3848	0	776	728	632	1966	
3849	0	777	729	632	1965	
3850	0	776	729	632	1968	
3851	0	776	729	633	1966	
3852	0	777	729	632	1964	
3853	0	776	728	632	1962	
3854	0	778	729	632	1961	
3855	0	777	729	633	1962	
3856	0	777	729	633	1964	
3857	0	777	729	633	1967	
3858	0	777	728	634	1968	
3859	0	777	728	633	1969	
3860	0	778	728	633	1968	
3861	0	778	728	633	1968	
3862	0	778	729	633	1968	
3863	0	778	728	632	1971	
3864	0	777	729	633	1975	
3865	0	777	728	633	1980	
3866	0	777	728	633	1984	
3867	0	778	728	632	1984	
3868	0	778	727	633	1985	
3869	0	778	728	632	1979	
3870	0	778	728	633	1975	
3871	0	779	729	632	1973	
3872	0	778	729	632	1975	
3873	0	777	727	633	1981	
3874	0	778	728	633	1990	
3875	0	776	727	632	1994	
3876	0	777	727	633	2000	
3877	0	778	728	633	2004	
3878	0	778	726	633	2008	
3879	0	779	728	633	2015	
3880	0	779	727	633	2020	
3881	0	778	727	633	2025	
3882	0	779	728	634	2033	
3883	0	778	727	634	2037	
3884	0	778	727	633	2040	
3885	0	778	727	634	2045	
3886	0	779	728	633	2048	
3887	0	778	727	633	2051	
3888	0	779	728	633	2059	
3889	0	778	727	633	2062	
3890	0	778	727	633	2066	
3891	0	778	728	633	2068	
3892	0	778	727	633	2065	
3893	0	778	728	633	2067	
3894	0	778	727	633	2065	
3895	0	777	727	634	2075	
3896	0	778	727	635	2082	
3897	0	778	727	633	2088	
3898	0	779	727	633	2087	
3899	0	777	727	633	2078	
3900	0	778	727	633	2073	
3901	0	779	728	634	2068	
3902	0	779	728	633	2074	
3903	0	779	728	633	2081	
3904	0	778	728	632	2083	
3905	0	778	728	633	2090	
3906	0	778	728	634	2094	
3907	0	777	728	632	2098	
3908	0	776	728	632	2100	
3909	0	778	729	632	2096	
3910	0	779	727	632	2086	
3911	0	778	728	632	2081	
3912	0	779	728	632	2082	
3913	0	778	727	632	2081	
3914	0	779	729	633	2082	
3915	0	779	729	633	2083	
3916	0	778	728	632	2079	
3917	0	779	728	633	2083	
3918	0	779	729	632	2090	
3919	0	778	728	632	2100	
3920	0	779	728	633	2117	
3921	0	780	729	633	2127	
3922	0	780	728	632	2136	
3923	0	779	729	633	2141	
3924	0	778	728	632	2139	
3925	0	778	728	633	2136	
3926	0	779	729	635	2123	
3927	0	778	730	632	2111	
3928	0	778	728	632	2102	
3929	0	778	729	633	2097	
3930	0	780	728	632	2095	
3931	0	778	729	632	2097	
3932	0	777	729	632	2104	
3933	0	778	729	633	2109	
3934	0	777	728	632	2107	
3935	0	778	729	633	2107	
3936	0	779	729	635	2103	
3937	0	779	729	632	2105	
3938	0	778	730	632	2109	
3939	0	778	729	632	2111	
3940	0	777	729	632	2120	
3941	0	778	729	632	2122	
3942	0	778	729	631	2125	
3943	0	778	728	631	2126	
3944	0	778	729	632	2124	
3945	0	779	729	633	2127	
3946	0	780	730	632	2128	
3947	0	779	729	632	2128	
3948	0	780	730	632	2132	
3949	0	779	729	632	2134	
3950	0	779	729	633	2136	
3951	0	780	730	633	2137	
3952	0	780	729	633	2131	
3953	0	780	729	633	2127	
3954	0	779	729	632	2116	
3955	0	779	729	633	2110	
3956	0	780	729	632	2106	
3957	0	779	729	631	2103	
3958	0	779	729	632	2101	
3959	0	779	729	633	2104	
3960	0	778	729	633	2102	
3961	0	778	729	633	2102	
3962	0	778	730	633	2105	
3963	0	777	728	632	2107	
3964	0	777	729	633	2111	
3965	0	776	730	633	2111	
3966	0	776	728	633	2115	
3967	0	777	729	634	2119	
3968	0	777	727	633	2122	
3969	0	778	729	634	2123	
3970	0	777	729	633	2122	
3971	0	780	729	633	2123	
3972	0	782	729	634	2121	
3973	0	781	729	633	2119	
3974	0	783	729	634	2120	
3975	0	783	728	633	2115	
3976	0	783	728	633	2107	
3977	0	784	729	634	2102	
3978	0	783	728	633	2092	
3979	0	783	728	634	2089	
3980	0	782	729	633	2089	
3981	0	782	729	633	2094	
3982	0	782	729	634	2103	
3983	0	781	729	634	2111	
3984	0	780	729	634	2116	
3985	0	778	729	634	2123	
3986	0	779	729	635	2123	
3987	0	778	729	636	2121	
3988	0	779	730	634	2128	
3989	0	778	729	634	2125	
3990	0	778	730	635	2120	
3991	0	778	730	634	2106	
3992	0	778	730	635	2093	
3993	0	778	730	635	2088	
3994	0	778	729	635	2083	
3995	0	779	729	635	2087	
3996	0	777	729	635	2091	
3997	0	778	730	635	2099	
3998	0	777	728	634	2100	
3999	0	778	730	635	2106	
4000	0	779	728	635	2106	
4001	0	779	731	634	2107	
4002	0	779	730	635	2108	
4003	0	779	729	634	2108	
4004	0	779	730	635	2110	
4005	0	780	729	635	2109	
4006	0	779	729	635	2109	
4007	0	780	729	635	2109	
4008	0	780	728	635	2107	
4009	0	780	729	635	2105	
4010	0	782	729	635	2104	
4011	0	781	729	635	2104	
4012	0	781	729	633	2105	
4013	0	780	729	634	2105	
4014	0	779	729	634	2105	
4015	0	782	729	635	2106	
4016	0	781	729	635	2107	
4017	0	780	728	634	2110	
4018	0	780	728	635	2108	
4019	0	779	728	635	2102	
4020	0	781	729	635	2093	
4021	0	780	729	635	2088	
4022	0	780	729	633	2083	
4023	0	780	729	634	2082	
4024	0	781	729	635	2079	
4025	0	782	730	635	2079	
4026	0	781	729	635	2076	
4027	0	781	729	633	2071	
4028	0	780	729	634	2071	
4029	0	779	729	634	2069	
4030	0	781	730	634	2068	
4031	0	780	730	634	2075	
4032	0	779	730	631	2082	
4033	0	779	730	633	2088	
4034	0	779	730	634	2096	
4035	0	779	730	634	2099	
4036	0	779	730	634	2103	
4037	0	780	731	634	2105	
4038	0	779	730	634	2100	
4039	0	779	729	634	2092	
4040	0	779	730	633	2078	
4041	0	779	729	634	2063	
4042	0	779	730	634	2053	
4043	0	779	730	634	2047	
4044	0	779	730	634	2044	
4045	0	779	730	634	2047	
4046	0	778	730	634	2055	
4047	0	779	730	635	2066	
4048	0	779	730	634	2076	
4049	0	779	730	634	2083	
4050	0	779	731	634	2090	
4051	0	780	730	634	2096	
4052	0	779	731	634	2101	
4053	0	779	731	634	2102	
4054	0	780	731	634	2099	
4055	0	780	731	634	2095	
4056	0	780	731	633	2082	
4057	0	780	732	633	2069	
4058	0	779	731	633	2059	
4059	0	779	730	634	2055	
4060	0	779	730	633	2060	
4061	0	779	730	634	2063	
4062	0	780	731	635	2068	
4063	0	779	730	633	2071	
4064	0	779	730	634	2072	
4065	0	779	730	635	2076	
4066	0	780	731	635	2075	
4067	0	780	730	635	2079	
4068	0	779	730	633	2084	
4069	0	779	731	633	2082	
4070	0	779	731	634	2079	
4071	0	779	731	633	2071	
4072	0	780	731	633	2070	
4073	0	780	730	632	2073	
4074	0	779	730	633	2075	
4075	0	779	730	632	2081	
4076	0	780	730	632	2085	
4077	0	780	731	632	2090	
4078	0	781	730	633	2091	
4079	0	780	730	633	2090	
4080	0	780	730	633	2087	
4081	0	780	730	632	2085	
4082	0	780	731	633	2084	
4083	0	780	731	632	2084	
4084	0	780	731	632	2080	
4085	0	779	731	632	2079	
4086	0	779	730	632	2079	
4087	0	779	731	632	2079	
4088	0	779	730	632	2083	
4089	0	780	731	632	2084	
4090	0	779	730	632	2084	
4091	0	779	730	632	2083	
4092	0	779	731	632	2081	
4093	0	779	731	632	2080	
4094	0	779	731	631	2076	
4095	0	778	731	632	2078	
4096	0	779	731	631	2075	
4097	0	778	731	631	2074	
4098	0	778	730	630	2073	
4099	0	778	730	631	2073	
4100	0	778	730	630	2075	
4101	0	778	731	630	2076	
4102	0	779	731	631	2076	
4103	0	779	730	632	2072	
4104	0	779	731	631	2070	
4105	0	779	730	630	2068	
4106	0	779	731	631	2069	
4107	0	780	731	632	2071	
4108	0	779	730	631	2072	
4109	0	779	730	630	2069	
4110	0	779	730	630	2067	
4111	0	778	730	630	2065	
4112	0	779	731	631	2066	
4113	0	778	730	630	2061	
4114	0	777	730	632	2055	
4115	0	778	731	631	2049	
4116	0	777	730	631	2045	
4117	0	778	731	632	2044	
4118	0	778	730	631	2044	
4119	0	778	730	631	2041	
4120	0	778	730	631	2040	
4121	0	777	730	630	2039	
4122	0	777	730	632	2045	
4123	0	776	730	631	2053	
4124	0	776	730	631	2058	
4125	0	777	730	631	2062	
4126	0	777	729	631	2069	
4127	0	777	730	632	2072	
4128	0	777	729	632	2076	
4129	0	777	730	632	2080	
4130	0	777	730	632	2084	
4131	0	777	730	631	2088	
4132	0	777	730	632	2087	
4133	0	777	730	632	2080	
4134	0	776	729	632	2063	
4135	0	776	729	632	2045	
4136	0	776	729	632	2033	
4137	0	776	730	633	2029	
4138	0	776	730	632	2031	
4139	0	778	731	633	2040	
4140	0	779	732	632	2049	
4141	0	777	729	631	2061	
4142	0	777	730	632	2073	
4143	0	776	730	632	2081	
4144	0	777	730	632	2086	
4145	0	776	730	632	2091	
4146	0	775	730	632	2094	
4147	0	775	730	632	2096	
4148	0	775	730	632	2099	
4149	0	776	730	631	2092	
4150	0	775	730	631	2087	
4151	0	776	729	632	2080	
4152	0	775	730	633	2076	
4153	0	775	730	632	2080	
4154	0	775	730	632	2081	
4155	0	776	730	632	2079	
4156	0	776	729	632	2073	
4157	0	776	730	632	2064	
4158	0	776	730	632	2058	
4159	0	775	730	631	2055	
4160	0	775	730	632	2059	
4161	0	776	730	632	2065	
4162	0	776	730	633	2070	
4163	0	775	730	632	2076	
4164	0	775	730	632	2080	
4165	0	775	730	632	2084	
4166	0	774	730	632	2086	
4167	0	775	731	632	2086	
4168	0	773	730	632	2087	
4169	0	774	730	632	2086	
4170	0	775	730	633	2085	
4171	0	775	730	633	2082	
4172	0	775	731	632	2079	
4173	0	775	730	633	2077	
4174	0	775	730	632	2074	
4175	0	775	730	632	2074	
4176	0	774	729	633	2075	
4177	0	775	731	633	2077	
4178	0	775	730	632	2075	
4179	0	775	730	632	2073	
4180	0	775	730	633	2073	
4181	0	776	730	633	2075	
4182	0	775	730	633	2076	
4183	0	774	730	632	2077	
4184	0	775	730	632	2074	
4185	0	774	730	632	2074	
4186	0	775	730	633	2072	
4187	0	774	731	634	2069	
4188	0	773	730	632	2070	
4189	0	774	731	632	2065	
4190	0	774	731	632	2060	
4191	0	774	730	633	2057	
4192	0	774	731	632	2053	
4193	0	772	730	632	2051	
4194	0	773	731	633	2052	
4195	0	774	733	632	2050	
4196	0	773	730	632	2051	
4197	0	774	731	634	2049	
4198	0	773	730	633	2050	
4199	0	774	731	632	2050	
4200	0	774	731	633	2054	
4201	0	773	731	633	2059	
4202	0	773	731	633	2063	
4203	0	773	731	632	2069	
4204	0	773	731	632	2072	
4205	0	774	731	632	2074	
4206	0	774	731	633	2073	
4207	0	773	731	634	2068	
4208	0	772	731	632	2070	
4209	0	772	731	632	2070	
4210	0	772	731	632	2069	
4211	0	772	731	632	2066	
4212	0	772	731	632	2062	
4213	0	772	731	632	2060	
4214	0	772	731	632	2058	
4215	0	772	731	632	2055	
4216	0	771	731	632	2052	
4217	0	772	731	633	2049	
4218	0	772	731	632	2052	
4219	0	773	732	632	2058	
4220	0	772	733	631	2058	
4221	0	771	731	632	2062	
4222	0	773	731	633	2066	
4223	0	772	731	632	2068	
4224	0	772	731	631	2062	
4225	0	773	731	632	2056	
4226	0	773	730	633	2047	
4227	0	772	731	634	2037	
4228	0	772	731	632	2032	
4229	0	772	731	632	2028	
4230	0	772	731	632	2029	
4231	0	772	731	632	2036	
4232	0	773	732	633	2046	
4233	0	773	731	632	2059	
4234	0	772	731	632	2067	
4235	0	771	731	631	2076	
4236	0	771	731	632	2085	
4237	0	772	732	632	2092	
4238	0	772	732	631	2098	
4239	0	772	732	631	2098	
4240	0	772	731	631	2100	
4241	0	771	731	632	2103	
4242	0	772	732	633	2102	
4243	0	772	731	631	2100	
4244	0	771	731	632	2097	
4245	0	771	731	632	2093	
4246	0	771	731	632	2089	
4247	0	771	732	633	2087	
4248	0	770	732	632	2087	
4249	0	771	732	632	2085	
4250	0	771	734	632	2079	
4251	0	771	732	632	2074	
4252	0	771	732	633	2071	
4253	0	771	731	632	2070	
4254	0	771	732	632	2066	
4255	0	772	732	630	2071	
4256	0	772	733	632	2072	
4257	0	771	732	633	2070	
4258	0	770	732	632	2066	
4259	0	771	733	632	2068	
4260	0	771	734	631	2063	
4261	0	770	732	632	2065	
4262	0	771	733	632	2067	
4263	0	770	732	631	2064	
4264	0	771	733	632	2067	
4265	0	769	733	631	2068	
4266	0	770	732	632	2074	
4267	0	770	733	632	2079	
4268	0	769	732	631	2079	
4269	0	769	732	632	2076	
4270	0	769	732	632	2077	
4271	0	770	732	633	2075	
4272	0	770	732	634	2075	
4273	0	770	732	632	2074	
4274	0	770	733	632	2073	
4275	0	770	733	632	2073	
4276	0	770	733	632	2073	
4277	0	770	733	634	2072	
4278	0	770	733	632	2072	
4279	0	770	732	632	2071	
4280	0	770	732	632	2070	
4281	0	770	732	632	2067	
4282	0	770	733	633	2065	
4283	0	771	732	631	2064	
4284	0	771	732	632	2062	
4285	0	771	732	631	2063	
4286	0	770	732	632	2063	
4287	0	771	732	633	2064	
4288	0	771	733	631	2066	
4289	0	771	732	632	2066	
4290	0	772	732	631	2066	
4291	0	772	732	632	2067	
4292	0	771	732	632	2067	
4293	0	771	732	631	2067	
4294	0	772	733	631	2064	
4295	0	772	733	631	2063	
4296	0	772	733	631	2064	
4297	0	773	733	631	2064	
4298	0	772	733	630	2059	
4299	0	772	733	630	2058	
4300	0	772	733	630	2058	
4301	0	771	733	631	2059	
4302	0	771	733	632	2059	
4303	0	772	732	632	2058	
4304	0	772	732	631	2056	
4305	0	772	734	631	2052	
4306	0	772	733	630	2053	
4307	0	772	733	631	2056	
4308	0	772	732	631	2057	
4309	0	772	732	631	2054	
4310	0	773	733	630	2056	
4311	0	771	733	631	2058	
4312	0	772	733	631	2059	
4313	0	772	731	631	2061	
4314	0	772	731	631	2058	
4315	0	772	733	630	2057	
4316	0	771	732	632	2056	
4317	0	772	732	633	2056	
4318	0	772	732	631	2056	
4319	0	772	732	630	2056	
4320	0	772	733	630	2056	
4321	0	771	733	631	2056	
4322	0	772	733	631	2050	
4323	0	772	732	631	2048	
4324	0	772	732	630	2047	
4325	0	771	733	630	2044	
4326	0	771	732	631	2041	
4327	0	771	732	631	2041	
4328	0	771	732	631	2047	
4329	0	772	732	631	2047	
4330	0	771	733	630	2051	
4331	0	771	732	632	2055	
4332	0	771	732	633	2059	
4333	0	771	732	632	2066	
4334	0	772	732	631	2069	
4335	0	772	733	631	2073	
4336	0	770	732	631	2074	
4337	0	772	732	632	2073	
4338	0	772	731	632	2073	
4339	0	772	731	632	2070	
4340	0	771	731	633	2067	
4341	0	772	731	634	2064	
4342	0	772	732	632	2063	
4343	0	773	732	633	2062	
4344	0	771	731	632	2054	
4345	0	773	732	632	2048	
4346	0	773	732	633	2038	
4347	0	771	732	633	2025	
4348	0	772	731	633	2013	
4349	0	772	731	633	2001	
4350	0	773	731	632	2000	
4351	0	772	731	633	2008	
4352	0	773	731	633	2019	
4353	0	773	731	632	2025	
4354	0	774	731	632	2023	
4355	0	773	732	632	2019	
4356	0	772	732	634	2021	
4357	0	772	732	634	2029	
4358	0	773	732	633	2038	
4359	0	773	731	633	2050	
4360	0	773	731	633	2061	
4361	0	774	731	634	2073	
4362	0	772	731	634	2080	
4363	0	773	731	633	2085	
4364	0	773	731	634	2086	
4365	0	773	730	634	2084	
4366	0	774	731	635	2080	
4367	0	774	731	636	2077	
4368	0	774	731	633	2077	
4369	0	775	730	634	2074	
4370	0	774	730	633	2072	
4371	0	775	731	634	2069	
4372	0	773	731	634	2063	
4373	0	774	730	634	2063	
4374	0	774	730	633	2066	
4375	0	774	730	634	2067	
4376	0	774	730	635	2067	
4377	0	774	730	634	2064	
4378	0	774	730	633	2063	
4379	0	773	730	633	2064	
4380	0	774	730	633	2064	
4381	0	773	730	633	2067	
4382	0	774	730	634	2069	
4383	0	775	730	633	2072	
4384	0	775	730	633	2073	
4385	0	776	730	634	2073	
4386	0	775	730	634	2073	
4387	0	775	731	634	2070	
4388	0	775	730	632	2068	
4389	0	775	730	633	2069	
4390	0	775	730	633	2070	
4391	0	774	730	633	2072	
4392	0	774	731	634	2071	
4393	0	775	730	632	2070	
4394	0	775	730	633	2067	
4395	0	775	730	633	2067	
4396	0	775	730	633	2067	
4397	0	775	730	634	2068	
4398	0	775	730	632	2070	
4399	0	774	730	633	2070	
4400	0	774	729	633	2069	
4401	0	774	730	633	2067	
4402	0	775	731	634	2064	
4403	0	775	731	632	2061	
4404	0	775	730	633	2060	
4405	0	775	730	633	2058	
4406	0	774	730	633	2054	
4407	0	774	730	634	2050	
4408	0	775	730	633	2051	
4409	0	774	730	633	2048	
4410	0	774	730	633	2048	
4411	0	775	730	633	2047	
4412	0	774	731	634	2050	
4413	0	774	730	633	2054	
4414	0	775	730	633	2057	
4415	0	774	730	634	2062	
4416	0	774	730	634	2063	
4417	0	775	731	635	2060	
4418	0	775	730	632	2058	
4419	0	775	730	633	2055	
4420	0	775	731	633	2053	
4421	0	774	730	633	2049	
4422	0	773	731	633	2047	
4423	0	775	731	634	2047	
4424	0	774	731	633	2044	
4425	0	775	731	633	2044	
4426	0	779	733	631	2014	
4427	0	778	734	632	2022	
4428	0	778	735	632	2031	
4429	0	778	734	631	2040	
4430	0	780	734	632	2048	
4431	0	779	735	632	2053	
4432	0	778	734	631	2056	
4433	0	778	734	631	2054	
4434	0	779	735	632	2055	
4435	0	778	734	631	2055	
4436	0	777	734	632	2060	
4437	0	778	734	632	2060	
4438	0	778	734	632	2053	
4439	0	779	733	631	2056	
4440	0	778	733	632	2056	
4441	0	778	733	632	2059	
4442	0	780	733	632	2058	
4443	0	778	733	631	2053	
4444	0	778	733	632	2049	
4445	0	779	732	631	2041	
4446	0	778	732	631	2038	
4447	0	779	733	632	2030	
4448	0	778	732	631	2025	
4449	0	777	732	630	2025	
4450	0	777	733	631	2024	
4451	0	778	734	631	2025	
4452	0	778	732	631	2032	
4453	0	778	733	631	2045	
4454	0	778	732	630	2052	
4455	0	779	733	630	2060	
4456	0	779	734	630	2063	
4457	0	779	732	630	2068	
4458	0	779	733	631	2076	
4459	0	777	732	630	2079	
4460	0	777	732	631	2075	
4461	0	777	733	630	2073	
4462	0	778	733	630	2070	
4463	0	776	732	630	2068	
4464	0	778	733	630	2068	
4465	0	777	733	630	2068	
4466	0	776	732	630	2071	
4467	0	778	732	630	2077	
4468	0	777	732	630	2084	
4469	0	777	732	630	2084	
4470	0	775	732	629	2082	
4471	0	776	732	630	2080	
4472	0	776	732	630	2077	
4473	0	776	732	630	2072	
4474	0	777	733	630	2069	
4475	0	777	732	630	2064	
4476	0	775	731	630	2063	
4477	0	777	732	631	2063	
4478	0	776	732	630	2056	
4479	0	777	732	630	2053	
4480	0	776	732	630	2051	
4481	0	776	732	630	2051	
4482	0	776	731	630	2053	
4483	0	777	732	630	2062	
4484	0	777	732	630	2064	
4485	0	776	732	630	2063	
4486	0	776	732	629	2057	
4487	0	777	732	630	2053	
4488	0	777	732	630	2055	
4489	0	777	731	628	2057	
4490	0	776	732	630	2065	
4491	0	777	732	630	2065	
4492	0	777	731	630	2064	
4493	0	776	731	629	2058	
4494	0	777	732	631	2058	
4495	0	776	731	630	2057	
4496	0	777	731	631	2063	
4497	0	777	731	630	2067	
4498	0	777	731	631	2068	
4499	0	777	731	629	2069	
4500	0	776	731	630	2064	
4501	0	777	731	630	2059	
4502	0	776	731	630	2055	
4503	0	776	731	631	2054	
4504	0	777	731	630	2056	
4505	0	777	731	630	2061	
4506	0	778	731	631	2068	
4507	0	777	731	631	2075	
4508	0	777	731	631	2085	
4509	0	777	731	630	2093	
4510	0	776	730	631	2098	
4511	0	776	730	631	2103	
4512	0	777	731	631	2102	
4513	0	776	731	631	2099	
4514	0	777	730	630	2093	
4515	0	777	731	631	2076	
4516	0	778	730	631	2060	
4517	0	777	730	631	2043	
4518	0	777	731	632	2027	
4519	0	777	730	630	2011	
4520	0	777	730	630	1998	
4521	0	777	730	631	1990	
4522	0	777	729	631	1986	
4523	0	777	731	631	1988	
4524	0	778	730	631	1990	
4525	0	778	730	632	1989	
4526	0	777	729	631	1980	
4527	0	779	730	631	1967	
4528	0	778	731	632	1955	
4529	0	777	730	632	1933	
4530	0	777	731	632	1913	
4531	0	778	729	632	1890	
4532	0	778	728	632	1867	
4533	0	778	730	632	1851	
4534	0	779	730	632	1842	
4535	0	778	731	632	1841	
4536	0	778	730	632	1846	
4537	0	779	731	632	1863	
4538	0	779	731	633	1882	
4539	0	779	731	633	1905	
4540	0	778	730	632	1930	
4541	0	779	731	632	1953	
4542	0	780	731	632	1973	
4543	0	778	731	632	1987	
4544	0	777	731	632	1995	
4545	0	776	732	633	2005	
4546	0	778	732	632	2009	
4547	0	778	731	632	2013	
4548	0	777	731	632	2024	
4549	0	778	731	632	2033	
4550	0	779	731	633	2049	
4551	0	778	731	633	2078	
4552	0	780	730	632	2120	
4553	0	778	731	632	2168	
4554	0	779	732	633	2215	
4555	0	778	731	632	2262	
4556	0	779	731	633	2314	
4557	0	781	731	633	2375	
4558	0	780	731	633	2436	
4559	0	781	732	634	2481	
4560	0	779	730	633	2506	
4561	0	779	731	633	2518	
4562	0	780	731	633	2516	
4563	0	780	731	633	2501	
4564	0	779	731	633	2481	
4565	0	778	731	633	2463	
4566	0	779	731	633	2433	
4567	0	781	731	632	2409	
4568	0	779	732	633	2386	
4569	0	779	732	633	2367	
4570	0	778	731	632	2339	
4571	0	779	731	632	2308	
4572	0	780	731	632	2281	
4573	0	778	732	633	2255	
4574	0	780	732	633	2230	
4575	0	779	732	632	2201	
4576	0	779	732	632	2177	
4577	0	778	732	632	2149	
4578	0	779	733	633	2111	
4579	0	779	732	632	2079	
4580	0	778	733	633	2048	
4581	0	779	733	633	2021	
4582	0	779	733	633	2000	
4583	0	778	732	632	1986	
4584	0	779	733	633	1985	
4585	0	779	732	633	1988	
4586	0	780	732	633	1998	
4587	0	779	732	633	2007	
4588	0	779	732	633	2022	
4589	0	778	732	633	2030	
4590	0	776	732	632	2037	
4591	0	776	732	633	2043	
4592	0	776	733	633	2050	
4593	0	776	733	633	2054	
4594	0	775	733	633	2051	
4595	0	774	733	632	2049	
4596	0	774	733	632	2045	
4597	0	774	734	632	2042	
4598	0	775	734	632	2038	
4599	0	775	734	632	2037	
4600	0	775	734	632	2031	
4601	0	776	734	632	2024	
4602	0	777	733	631	2019	
4603	0	777	734	632	2017	
4604	0	776	734	633	2013	
4605	0	776	733	632	2012	
4606	0	778	733	632	2014	
4607	0	779	733	632	2013	
4608	0	778	734	632	2010	
4609	0	779	733	633	2010	
4610	0	780	733	632	2007	
4611	0	780	733	632	2002	
4612	0	781	733	632	1995	
4613	0	781	733	632	1989	
4614	0	781	732	633	1984	
4615	0	781	732	632	1983	
4616	0	782	732	632	1984	
4617	0	782	732	632	1988	
4618	0	780	733	633	1993	
4619	0	780	732	632	1993	
4620	0	780	732	633	1995	
4621	0	780	732	632	1996	
4622	0	779	733	633	1997	
4623	0	779	733	633	2003	
4624	0	778	732	632	2002	
4625	0	777	733	632	1999	
4626	0	777	733	632	1992	
4627	0	777	734	632	1983	
4628	0	777	734	632	1972	
4629	0	778	734	633	1970	
4630	0	777	733	632	1962	
4631	0	778	734	633	1949	
4632	0	779	734	633	1932	
4633	0	777	733	633	1912	
