# OpenSignals Text File Format. Version 1
# {"00:07:80:4C:2A:F7": {"position": 0, "device": "bioplux", "device name": "00:07:80:4C:2A:F7", 
"device connection": "BTH00:07:80:4C:2A:F7", "sampling rate": 1000, "resolution": [12, 12, 12, 12],
 "firmware version": 512, "comments": "", "keywords": "", "mode": 0, "sync interval": 2, "date": "2024-4-29", 
"time": "19:42:22.879", "channels": [1, 2, 3, 4], "sensor": ["XYZ", "XYZ", "XYZ", "ECG"], "label": ["x", "y", "z", "ECG"], "column": ["nSeq", "DI", "x", "y", "z", "ECG"], "special": [{}, {}, {}, {}], "digital IO": [0, 1], "convertedValues": 0}}
# EndOfHeader
0	0	811	784	631	2048	
1	0	811	785	631	2035	
2	0	812	785	630	2033	
3	0	812	785	630	2041	
4	0	812	785	630	2060	
5	0	812	784	631	2078	
6	0	812	785	630	2087	
7	0	813	785	630	2090	
8	0	812	784	630	2089	
9	0	812	784	630	2088	
10	0	812	784	631	2086	
11	0	813	784	630	2084	
12	0	812	784	630	2085	
13	0	812	785	629	2083	
14	0	812	785	630	2078	
15	0	812	784	631	2071	
16	0	811	785	631	2060	
17	0	812	785	630	2040	
18	0	811	786	631	2019	
19	0	810	785	629	2009	
20	0	811	785	630	2005	
21	0	812	785	631	2005	
22	0	812	785	630	1997	
23	0	813	785	630	1985	
24	0	814	785	631	1971	
25	0	810	784	630	1965	
26	0	812	785	630	1968	
27	0	812	784	630	1974	
28	0	811	784	630	1984	
29	0	811	784	630	1997	
30	0	811	783	631	2008	
31	0	812	784	632	2018	
32	0	811	784	630	2026	
33	0	812	784	630	2032	
34	0	812	785	630	2036	
35	0	812	784	631	2040	
36	0	812	786	630	2046	
37	0	811	784	630	2058	
38	0	812	784	630	2064	
39	0	812	784	630	2063	
40	0	812	784	631	2055	
41	0	813	785	632	2045	
42	0	811	784	630	2039	
43	0	811	786	630	2035	
44	0	811	785	630	2035	
45	0	811	785	631	2035	
46	0	812	785	631	2033	
47	0	811	784	630	2031	
48	0	811	784	631	2025	
49	0	811	785	630	2026	
50	0	812	785	630	2037	
51	0	812	786	630	2046	
52	0	812	785	630	2047	
53	0	813	785	629	2040	
54	0	814	785	628	2015	
55	0	813	785	629	1985	
56	0	813	785	629	1975	
57	0	814	786	630	1986	
58	0	813	785	630	2000	
59	0	814	785	629	2009	
60	0	814	785	629	2011	
61	0	815	786	630	2013	
62	0	814	785	629	2013	
63	0	814	786	629	2016	
64	0	817	785	629	2019	
65	0	814	785	629	2025	
66	0	815	786	629	2036	
67	0	814	785	629	2039	
68	0	815	786	629	2040	
69	0	815	784	628	2030	
70	0	813	784	630	2020	
71	0	813	786	629	2019	
72	0	814	786	630	2032	
73	0	813	785	629	2052	
74	0	814	786	628	2084	
75	0	814	787	629	2114	
76	0	814	786	629	2131	
77	0	815	786	629	2139	
78	0	814	785	628	2134	
79	0	814	785	628	2136	
80	0	814	786	629	2137	
81	0	814	786	629	2135	
82	0	815	785	628	2134	
83	0	815	785	628	2128	
84	0	814	785	628	2120	
85	0	815	785	629	2111	
86	0	816	786	629	2100	
87	0	814	785	629	2085	
88	0	814	785	629	2068	
89	0	814	785	629	2054	
90	0	814	784	629	2045	
91	0	815	786	630	2036	
92	0	814	785	629	2024	
93	0	814	785	629	2010	
94	0	814	786	629	1995	
95	0	814	785	629	1987	
96	0	814	786	630	1993	
97	0	815	786	629	2010	
98	0	815	786	628	2027	
99	0	814	786	628	2042	
100	0	814	786	629	2052	
101	0	814	786	630	2061	
102	0	814	786	629	2069	
103	0	814	786	630	2075	
104	0	814	785	630	2080	
105	0	814	785	630	2084	
106	0	814	785	631	2087	
107	0	814	785	630	2089	
108	0	815	785	629	2088	
109	0	815	786	629	2083	
110	0	815	786	629	2079	
111	0	817	787	630	2084	
112	0	815	786	630	2093	
113	0	815	786	629	2102	
114	0	814	785	628	2110	
115	0	814	786	630	2109	
116	0	813	786	629	2096	
117	0	814	787	630	2082	
118	0	812	786	629	2061	
119	0	813	786	627	2052	
120	0	814	787	629	2048	
121	0	815	786	629	2045	
122	0	816	787	629	2048	
123	0	814	786	629	2049	
124	0	815	785	628	2059	
125	0	814	786	629	2069	
126	0	813	786	631	2076	
127	0	814	785	629	2083	
128	0	814	786	630	2080	
129	0	815	785	629	2065	
130	0	814	786	629	2034	
131	0	814	786	630	1995	
132	0	813	786	629	1972	
133	0	814	786	629	1976	
134	0	815	785	628	1993	
135	0	813	785	629	2010	
136	0	813	786	629	2022	
137	0	813	785	630	2024	
138	0	814	785	630	2026	
139	0	816	785	629	2025	
140	0	814	785	630	2025	
141	0	814	786	628	2026	
142	0	815	786	629	2025	
143	0	813	785	629	2017	
144	0	814	785	629	2009	
145	0	814	785	629	2004	
146	0	812	785	629	2001	
147	0	812	784	629	2007	
148	0	812	785	628	2003	
149	0	812	785	628	1993	
150	0	813	785	629	1989	
151	0	812	785	629	2000	
152	0	813	785	627	2023	
153	0	813	785	628	2047	
154	0	814	784	628	2073	
155	0	814	785	628	2097	
156	0	813	785	630	2118	
157	0	813	785	628	2136	
158	0	814	784	628	2148	
159	0	814	784	629	2157	
160	0	814	784	629	2167	
161	0	813	785	629	2182	
162	0	814	784	629	2200	
163	0	813	784	629	2208	
164	0	813	784	628	2219	
165	0	813	784	629	2220	
166	0	812	785	629	2210	
167	0	812	784	628	2191	
168	0	813	784	628	2168	
169	0	813	784	628	2151	
170	0	813	784	629	2139	
171	0	813	785	628	2134	
172	0	815	785	629	2129	
173	0	814	784	628	2119	
174	0	814	784	628	2107	
175	0	814	784	629	2097	
176	0	814	785	629	2092	
177	0	814	784	628	2091	
178	0	814	784	628	2097	
179	0	814	783	627	2109	
180	0	815	784	629	2119	
181	0	813	783	629	2120	
182	0	815	784	629	2121	
183	0	814	783	629	2118	
184	0	813	784	628	2119	
185	0	814	785	630	2115	
186	0	812	784	629	2111	
187	0	814	785	629	2112	
188	0	813	784	629	2104	
189	0	813	783	628	2098	
190	0	813	785	630	2088	
191	0	812	785	629	2071	
192	0	813	785	630	2057	
193	0	813	784	629	2042	
194	0	813	784	628	2038	
195	0	812	784	630	2031	
196	0	812	784	629	2029	
197	0	813	785	629	2032	
198	0	812	784	629	2038	
199	0	813	784	628	2051	
200	0	813	784	630	2064	
201	0	812	784	630	2072	
202	0	812	783	629	2075	
203	0	814	784	629	2072	
204	0	813	782	628	2067	
205	0	814	784	629	2064	
206	0	813	783	629	2062	
207	0	814	784	630	2061	
208	0	813	783	628	2051	
209	0	813	783	628	2044	
210	0	814	783	628	2038	
211	0	814	784	629	2035	
212	0	813	783	628	2034	
213	0	814	784	629	2035	
214	0	814	782	628	2032	
215	0	814	783	628	2029	
216	0	812	783	628	2028	
217	0	812	782	628	2026	
218	0	811	783	629	2008	
219	0	811	783	629	1979	
220	0	811	783	629	1960	
221	0	810	783	630	1959	
222	0	810	783	628	1972	
223	0	810	783	629	1990	
224	0	810	783	629	2007	
225	0	809	783	629	2027	
226	0	810	783	630	2046	
227	0	810	783	629	2062	
228	0	810	782	629	2072	
229	0	811	782	629	2078	
230	0	812	782	629	2081	
231	0	811	782	631	2083	
232	0	812	782	629	2081	
233	0	811	782	630	2078	
234	0	811	782	630	2074	
235	0	811	782	630	2072	
236	0	812	782	631	2073	
237	0	812	782	630	2076	
238	0	813	782	630	2073	
239	0	813	782	630	2064	
240	0	813	782	631	2047	
241	0	813	783	630	2025	
242	0	814	783	630	2006	
243	0	813	782	629	1992	
244	0	813	783	629	1991	
245	0	813	782	629	1992	
246	0	813	783	630	1992	
247	0	814	782	628	1992	
248	0	814	782	629	1990	
249	0	813	782	629	1990	
250	0	813	782	629	1993	
251	0	813	782	629	1995	
252	0	813	782	628	1997	
253	0	813	781	628	1994	
254	0	813	782	629	2000	
255	0	812	781	629	2013	
256	0	812	782	630	2027	
257	0	811	782	628	2031	
258	0	810	782	628	2022	
259	0	810	782	629	2008	
260	0	810	782	628	1999	
261	0	811	782	630	2001	
262	0	812	782	628	2012	
263	0	812	782	629	2030	
264	0	812	782	629	2046	
265	0	813	782	629	2056	
266	0	812	783	630	2065	
267	0	813	783	629	2070	
268	0	812	782	629	2076	
269	0	812	782	628	2088	
270	0	813	782	629	2101	
271	0	812	783	629	2106	
272	0	811	782	627	2095	
273	0	812	783	629	2085	
274	0	812	781	629	2074	
275	0	812	782	628	2071	
276	0	811	783	629	2070	
277	0	811	783	627	2064	
278	0	811	782	628	2057	
279	0	811	782	628	2055	
280	0	811	783	629	2058	
281	0	811	782	628	2069	
282	0	812	783	629	2083	
283	0	812	782	628	2090	
284	0	812	782	628	2094	
285	0	813	783	629	2088	
286	0	811	782	629	2077	
287	0	812	782	628	2064	
288	0	813	783	630	2054	
289	0	813	781	629	2041	
290	0	813	782	629	2028	
291	0	814	783	629	2020	
292	0	813	782	628	2014	
293	0	813	783	629	2015	
294	0	813	782	630	2009	
295	0	814	782	630	2005	
296	0	812	783	630	2004	
297	0	812	783	629	2004	
298	0	812	783	629	2015	
299	0	811	783	629	2028	
300	0	813	783	629	2043	
301	0	812	784	630	2058	
302	0	812	783	629	2070	
303	0	813	783	630	2082	
304	0	812	785	631	2089	
305	0	812	782	630	2079	
306	0	812	783	631	2055	
307	0	811	783	629	2036	
308	0	812	783	631	2028	
309	0	813	782	630	2024	
310	0	813	782	629	2030	
311	0	813	784	630	2038	
312	0	812	783	629	2041	
313	0	813	784	630	2045	
314	0	812	784	630	2043	
315	0	813	783	629	2042	
316	0	812	784	630	2043	
317	0	811	784	629	2041	
318	0	812	784	631	2049	
319	0	812	784	630	2054	
320	0	812	784	629	2063	
321	0	812	784	630	2074	
322	0	812	783	629	2084	
323	0	813	784	629	2091	
324	0	812	783	630	2099	
325	0	812	784	630	2100	
326	0	811	784	630	2094	
327	0	812	783	629	2081	
328	0	812	784	629	2060	
329	0	811	784	630	2038	
330	0	812	783	630	2015	
331	0	811	784	630	1999	
332	0	811	783	629	1988	
333	0	812	783	630	1979	
334	0	811	784	630	1965	
335	0	812	783	630	1951	
336	0	810	783	629	1945	
337	0	811	783	629	1953	
338	0	811	784	629	1963	
339	0	812	785	629	1974	
340	0	812	784	629	1983	
341	0	812	783	629	1993	
342	0	811	784	628	2013	
343	0	812	784	629	2032	
344	0	812	783	629	2053	
345	0	812	784	629	2072	
346	0	811	784	629	2085	
347	0	811	784	628	2103	
348	0	811	784	629	2113	
349	0	812	785	629	2119	
350	0	812	784	629	2124	
351	0	812	785	629	2124	
352	0	812	784	629	2123	
353	0	811	785	629	2120	
354	0	812	784	629	2115	
355	0	813	784	629	2106	
356	0	812	785	629	2098	
357	0	811	784	628	2086	
358	0	811	784	629	2078	
359	0	812	784	629	2072	
360	0	812	783	629	2070	
361	0	813	785	629	2070	
362	0	811	783	628	2070	
363	0	811	785	629	2075	
364	0	811	785	629	2076	
365	0	811	784	629	2078	
366	0	812	785	629	2076	
367	0	810	784	628	2065	
368	0	810	784	629	2048	
369	0	811	784	629	2034	
370	0	811	784	629	2021	
371	0	812	785	629	2013	
372	0	812	785	629	2011	
373	0	812	784	628	2012	
374	0	812	785	629	2019	
375	0	813	783	629	2019	
376	0	811	784	629	2017	
377	0	810	783	628	2010	
378	0	810	784	629	2007	
379	0	812	785	631	2003	
380	0	812	784	630	1999	
381	0	812	784	629	1994	
382	0	812	784	628	1987	
383	0	811	785	629	1989	
384	0	812	784	628	1994	
385	0	813	783	629	2009	
386	0	812	785	629	2032	
387	0	811	784	628	2049	
388	0	811	784	629	2052	
389	0	812	783	629	2053	
390	0	812	783	629	2068	
391	0	812	784	629	2094	
392	0	812	784	628	2121	
393	0	812	784	628	2139	
394	0	812	784	627	2146	
395	0	813	784	628	2145	
396	0	812	784	628	2141	
397	0	812	784	627	2133	
398	0	812	784	628	2115	
399	0	812	784	628	2095	
400	0	811	783	628	2078	
401	0	812	784	628	2069	
402	0	812	784	628	2061	
403	0	812	783	628	2053	
404	0	812	784	628	2046	
405	0	812	784	628	2037	
406	0	812	784	628	2032	
407	0	812	784	628	2028	
408	0	811	784	628	2027	
409	0	812	783	628	2021	
410	0	812	784	628	2016	
411	0	811	784	628	2018	
412	0	810	783	627	2030	
413	0	809	784	629	2042	
414	0	811	786	629	2047	
415	0	810	784	628	2046	
416	0	811	784	628	2042	
417	0	812	785	629	2034	
418	0	811	784	628	2021	
419	0	810	784	629	2013	
420	0	811	784	629	2005	
421	0	809	784	628	1996	
422	0	810	785	629	1996	
423	0	809	783	628	2001	
424	0	809	784	628	2020	
425	0	810	784	629	2047	
426	0	810	784	628	2077	
427	0	811	784	629	2108	
428	0	811	783	628	2126	
429	0	809	783	629	2143	
430	0	810	784	629	2153	
431	0	810	783	629	2159	
432	0	810	784	628	2162	
433	0	810	784	629	2163	
434	0	811	783	628	2158	
435	0	811	783	629	2152	
436	0	810	783	629	2145	
437	0	810	783	628	2135	
438	0	810	783	629	2121	
439	0	811	783	629	2108	
440	0	812	783	628	2102	
441	0	810	783	629	2100	
442	0	810	783	628	2099	
443	0	810	782	629	2095	
444	0	811	783	628	2095	
445	0	812	783	628	2095	
446	0	811	783	629	2096	
447	0	809	782	629	2095	
448	0	810	782	629	2095	
449	0	811	783	629	2096	
450	0	811	783	629	2096	
451	0	811	783	629	2097	
452	0	810	782	628	2097	
453	0	810	782	629	2096	
454	0	811	783	629	2093	
455	0	812	782	629	2090	
456	0	812	783	629	2087	
457	0	811	783	629	2083	
458	0	810	783	629	2078	
459	0	810	783	630	2071	
460	0	810	783	629	2068	
461	0	811	783	629	2065	
462	0	811	782	628	2062	
463	0	810	782	629	2056	
464	0	810	782	629	2053	
465	0	811	783	629	2049	
466	0	810	782	629	2039	
467	0	811	783	629	2024	
468	0	809	782	629	2009	
469	0	810	782	629	2005	
470	0	811	782	629	2005	
471	0	810	783	629	2006	
472	0	812	783	629	2008	
473	0	811	781	628	2007	
474	0	812	782	628	2005	
475	0	812	782	628	2002	
476	0	811	783	629	2003	
477	0	811	782	628	1998	
478	0	810	783	630	1991	
479	0	811	782	629	1982	
480	0	812	782	629	1978	
481	0	811	783	629	1978	
482	0	812	781	629	1981	
483	0	811	781	629	1987	
484	0	812	781	628	1992	
485	0	812	782	628	1998	
486	0	812	781	628	2001	
487	0	811	781	628	2000	
488	0	812	781	629	1992	
489	0	812	781	628	1976	
490	0	814	781	628	1973	
491	0	813	782	629	1986	
492	0	812	781	628	2009	
493	0	811	781	628	2025	
494	0	811	781	628	2032	
495	0	812	781	628	2032	
496	0	811	782	629	2030	
497	0	811	782	628	2026	
498	0	811	782	628	2019	
499	0	812	782	628	2012	
500	0	812	782	628	2005	
501	0	811	782	628	2002	
502	0	810	782	628	2007	
503	0	810	781	628	2019	
504	0	810	782	629	2036	
505	0	811	782	630	2053	
506	0	810	782	629	2064	
507	0	810	781	628	2067	
508	0	810	782	630	2067	
509	0	811	783	629	2059	
510	0	811	781	630	2056	
511	0	812	782	629	2060	
512	0	811	782	628	2060	
513	0	812	781	629	2054	
514	0	812	782	629	2044	
515	0	812	783	629	2033	
516	0	811	782	629	2023	
517	0	811	782	629	2020	
518	0	810	782	628	2022	
519	0	810	782	629	2032	
520	0	811	783	629	2044	
521	0	811	782	629	2051	
522	0	811	783	629	2059	
523	0	809	782	629	2057	
524	0	810	782	629	2052	
525	0	811	782	629	2045	
526	0	811	782	630	2032	
527	0	811	783	630	2025	
528	0	810	782	629	2020	
529	0	811	782	629	2021	
530	0	810	783	629	2024	
531	0	810	782	630	2034	
532	0	809	782	629	2041	
533	0	809	782	629	2048	
534	0	810	782	630	2053	
535	0	810	782	629	2051	
536	0	810	782	629	2044	
537	0	808	782	629	2037	
538	0	808	782	630	2034	
539	0	810	782	629	2036	
540	0	811	782	629	2038	
541	0	811	783	630	2041	
542	0	810	782	629	2042	
543	0	811	782	629	2043	
544	0	812	782	630	2043	
545	0	813	782	629	2043	
546	0	814	782	630	2043	
547	0	814	782	629	2041	
548	0	813	782	629	2041	
549	0	814	783	629	2047	
550	0	813	783	629	2049	
551	0	812	784	629	2047	
552	0	811	783	628	2045	
553	0	810	783	629	2045	
554	0	810	783	629	2042	
555	0	810	782	629	2032	
556	0	810	783	629	2012	
557	0	808	782	628	1977	
558	0	809	782	629	1945	
559	0	809	782	630	1929	
560	0	809	783	630	1933	
561	0	809	782	630	1949	
562	0	809	783	630	1955	
563	0	809	783	629	1937	
564	0	808	783	629	1923	
565	0	810	783	630	1924	
566	0	808	782	629	1939	
567	0	808	782	629	1964	
568	0	809	782	629	1990	
569	0	810	782	629	2011	
570	0	810	782	629	2026	
571	0	810	782	630	2038	
572	0	810	782	629	2044	
573	0	810	782	630	2051	
574	0	811	782	630	2065	
575	0	811	782	629	2084	
576	0	809	782	630	2102	
577	0	810	781	629	2114	
578	0	811	782	629	2118	
579	0	811	782	629	2115	
580	0	812	781	629	2110	
581	0	812	781	629	2106	
582	0	812	782	629	2101	
583	0	811	782	629	2095	
584	0	811	782	629	2080	
585	0	813	782	628	2062	
586	0	811	782	629	2047	
587	0	812	782	628	2038	
588	0	812	782	629	2033	
589	0	812	781	629	2029	
590	0	812	780	629	2028	
591	0	811	781	629	2028	
592	0	810	782	629	2029	
593	0	811	783	629	2036	
594	0	811	783	629	2042	
595	0	811	782	629	2051	
596	0	812	783	629	2058	
597	0	811	782	628	2058	
598	0	811	782	629	2059	
599	0	811	782	629	2064	
600	0	810	782	629	2066	
601	0	809	781	629	2064	
602	0	810	783	629	2066	
603	0	810	782	629	2065	
604	0	810	782	629	2068	
605	0	811	781	629	2072	
606	0	809	781	629	2071	
607	0	810	783	630	2067	
608	0	811	782	630	2058	
609	0	810	782	630	2057	
610	0	810	784	630	2056	
611	0	810	783	630	2052	
612	0	810	782	629	2044	
613	0	810	783	630	2040	
614	0	810	783	630	2033	
615	0	810	782	629	2027	
616	0	811	783	631	2017	
617	0	809	782	629	2001	
618	0	809	783	630	1990	
619	0	810	785	629	1978	
620	0	809	784	629	1975	
621	0	810	783	630	1983	
622	0	809	783	629	1993	
623	0	810	784	630	2008	
624	0	811	784	630	2023	
625	0	811	784	630	2039	
626	0	810	782	630	2054	
627	0	811	783	629	2064	
628	0	811	783	629	2067	
629	0	810	783	629	2068	
630	0	810	782	629	2070	
631	0	809	782	630	2071	
632	0	810	782	629	2074	
633	0	810	783	630	2072	
634	0	810	782	631	2066	
635	0	811	782	630	2054	
636	0	809	782	630	2045	
637	0	810	782	630	2037	
638	0	809	783	629	2028	
639	0	810	783	630	2017	
640	0	811	781	629	2006	
641	0	810	782	630	1997	
642	0	811	783	630	1988	
643	0	810	782	630	1979	
644	0	810	783	629	1977	
645	0	810	782	631	1976	
646	0	809	782	630	1977	
647	0	809	783	630	1983	
648	0	810	783	630	1994	
649	0	810	784	629	2011	
650	0	811	783	630	2032	
651	0	809	783	630	2050	
652	0	811	785	631	2063	
653	0	810	784	630	2060	
654	0	809	783	631	2032	
655	0	810	785	630	1996	
656	0	810	784	631	1980	
657	0	809	783	630	1980	
658	0	809	784	631	1997	
659	0	810	784	629	2012	
660	0	810	784	630	2025	
661	0	810	784	631	2035	
662	0	809	783	630	2037	
663	0	808	784	630	2040	
664	0	809	784	629	2041	
665	0	809	785	630	2044	
666	0	809	784	631	2056	
667	0	808	783	630	2066	
668	0	809	784	630	2083	
669	0	809	785	629	2091	
670	0	811	783	629	2100	
671	0	809	783	629	2109	
672	0	811	784	630	2118	
673	0	810	783	629	2121	
674	0	810	784	629	2122	
675	0	810	784	629	2117	
676	0	808	783	629	2105	
677	0	808	784	629	2093	
678	0	809	784	631	2082	
679	0	809	783	629	2075	
680	0	810	784	629	2070	
681	0	809	782	630	2070	
682	0	808	783	629	2066	
683	0	809	783	629	2063	
684	0	810	783	629	2061	
685	0	810	782	629	2058	
686	0	808	782	630	2050	
687	0	809	782	629	2038	
688	0	808	782	630	2030	
689	0	809	782	629	2028	
690	0	809	783	629	2032	
691	0	808	782	629	2037	
692	0	810	783	628	2038	
693	0	810	783	629	2042	
694	0	810	783	629	2048	
695	0	810	782	628	2057	
696	0	809	783	629	2062	
697	0	810	783	629	2059	
698	0	809	782	629	2054	
699	0	810	783	629	2045	
700	0	809	782	628	2036	
701	0	808	782	629	2027	
702	0	809	783	629	2018	
703	0	808	783	629	2013	
704	0	808	783	629	2010	
705	0	809	783	629	2010	
706	0	809	783	630	2015	
707	0	808	782	629	2022	
708	0	808	782	629	2036	
709	0	810	782	629	2052	
710	0	809	781	629	2064	
711	0	808	782	629	2067	
712	0	808	782	629	2063	
713	0	808	782	629	2062	
714	0	809	782	630	2059	
715	0	810	783	629	2054	
716	0	808	781	629	2042	
717	0	809	782	630	2029	
718	0	809	782	630	2021	
719	0	809	782	630	2021	
720	0	810	782	629	2024	
721	0	809	782	630	2023	
722	0	809	782	629	2015	
723	0	809	782	629	2009	
724	0	809	782	629	2007	
725	0	809	781	630	2007	
726	0	808	781	630	2006	
727	0	809	782	630	2007	
728	0	808	782	629	2014	
729	0	808	781	629	2019	
730	0	808	783	630	2024	
731	0	809	783	631	2030	
732	0	808	782	630	2030	
733	0	808	782	630	2035	
734	0	809	782	629	2049	
735	0	809	783	629	2066	
736	0	809	781	629	2081	
737	0	809	783	629	2092	
738	0	809	782	628	2095	
739	0	809	783	628	2100	
740	0	809	783	629	2101	
741	0	807	783	629	2094	
742	0	809	783	629	2086	
743	0	810	782	628	2075	
744	0	809	782	628	2065	
745	0	810	783	628	2055	
746	0	808	782	628	2042	
747	0	809	783	628	2029	
748	0	810	783	629	2020	
749	0	810	783	627	2009	
750	0	810	784	628	2005	
751	0	810	783	629	2013	
752	0	809	782	629	2021	
753	0	810	783	629	2039	
754	0	810	783	627	2053	
755	0	809	783	628	2067	
756	0	809	783	628	2074	
757	0	809	782	627	2074	
758	0	809	782	628	2078	
759	0	809	782	628	2080	
760	0	810	782	628	2080	
761	0	808	781	627	2075	
762	0	810	782	627	2054	
763	0	809	781	627	2021	
764	0	809	782	627	2001	
765	0	810	782	628	1998	
766	0	809	781	628	2001	
767	0	808	783	627	2008	
768	0	809	783	628	2016	
769	0	809	783	626	2021	
770	0	810	783	628	2027	
771	0	810	783	628	2035	
772	0	809	782	627	2040	
773	0	809	784	627	2048	
774	0	810	783	627	2053	
775	0	810	783	628	2060	
776	0	812	783	628	2067	
777	0	811	782	628	2068	
778	0	811	782	629	2072	
779	0	810	783	628	2069	
780	0	809	783	628	2063	
781	0	810	783	629	2057	
782	0	809	782	628	2047	
783	0	810	784	628	2042	
784	0	809	782	627	2042	
785	0	809	783	627	2042	
786	0	808	783	627	2047	
787	0	809	782	627	2048	
788	0	809	782	627	2043	
789	0	809	783	627	2034	
790	0	809	783	627	2032	
791	0	808	782	627	2038	
792	0	808	782	627	2046	
793	0	809	782	628	2058	
794	0	809	781	627	2066	
795	0	810	782	627	2070	
796	0	810	783	627	2069	
797	0	810	782	627	2060	
798	0	810	782	627	2054	
799	0	810	783	627	2051	
800	0	811	783	627	2053	
801	0	809	782	627	2059	
802	0	810	782	627	2067	
803	0	809	782	628	2075	
804	0	810	782	628	2078	
805	0	811	783	628	2082	
806	0	810	783	628	2085	
807	0	811	782	628	2084	
808	0	811	783	628	2079	
809	0	810	783	628	2068	
810	0	811	784	629	2046	
811	0	810	783	628	2013	
812	0	810	783	627	1987	
813	0	811	783	628	1979	
814	0	811	784	627	1980	
815	0	811	783	628	1991	
816	0	811	784	628	2007	
817	0	811	782	628	2021	
818	0	811	783	628	2041	
819	0	812	784	626	2056	
820	0	811	784	628	2070	
821	0	812	784	628	2071	
822	0	811	783	627	2056	
823	0	811	782	628	2040	
824	0	811	783	627	2020	
825	0	810	783	629	2007	
826	0	810	782	629	1996	
827	0	811	783	629	1990	
828	0	811	782	629	1987	
829	0	811	783	629	1987	
830	0	810	783	629	1989	
831	0	810	783	629	1998	
832	0	811	783	629	2016	
833	0	810	782	628	2043	
834	0	810	783	627	2070	
835	0	811	783	628	2089	
836	0	810	783	628	2101	
837	0	811	783	628	2103	
838	0	810	783	628	2102	
839	0	811	783	628	2100	
840	0	811	784	629	2096	
841	0	811	783	629	2091	
842	0	810	783	629	2087	
843	0	810	783	629	2082	
844	0	810	783	629	2077	
845	0	810	782	629	2057	
846	0	810	782	629	2022	
847	0	810	782	628	1996	
848	0	810	781	628	1992	
849	0	810	783	628	2006	
850	0	810	783	628	2025	
851	0	810	782	629	2047	
852	0	810	782	628	2061	
853	0	810	782	629	2073	
854	0	810	783	628	2082	
855	0	810	782	629	2087	
856	0	810	783	629	2087	
857	0	810	783	628	2080	
858	0	809	782	629	2071	
859	0	810	783	628	2059	
860	0	810	783	629	2044	
861	0	810	783	628	2023	
862	0	810	782	628	2007	
863	0	810	781	629	2003	
864	0	811	783	628	2004	
865	0	811	783	628	2015	
866	0	812	783	629	2031	
867	0	810	782	628	2046	
868	0	811	781	629	2062	
869	0	811	783	626	2074	
870	0	811	783	628	2086	
871	0	811	783	629	2096	
872	0	810	782	628	2095	
873	0	810	782	629	2097	
874	0	811	783	628	2101	
875	0	811	783	628	2099	
876	0	810	783	628	2084	
877	0	811	783	628	2065	
878	0	811	782	629	2053	
879	0	810	783	629	2048	
880	0	811	783	628	2048	
881	0	810	783	629	2053	
882	0	810	782	629	2056	
883	0	810	782	629	2058	
884	0	810	783	629	2053	
885	0	811	784	629	2039	
886	0	810	783	629	2020	
887	0	811	783	629	2000	
888	0	810	782	628	1989	
889	0	810	783	628	1990	
890	0	811	782	629	2002	
891	0	810	783	629	2013	
892	0	809	782	629	2014	
893	0	810	782	630	2022	
894	0	809	783	629	2035	
895	0	810	784	629	2051	
896	0	810	783	630	2062	
897	0	811	782	629	2068	
898	0	810	782	629	2070	
899	0	809	782	629	2062	
900	0	810	783	629	2048	
901	0	810	782	630	2035	
902	0	810	782	630	2026	
903	0	809	782	630	2021	
904	0	809	782	630	2017	
905	0	810	783	630	2010	
906	0	809	783	630	2001	
907	0	809	783	629	1993	
908	0	811	782	630	1981	
909	0	810	783	630	1959	
910	0	810	783	629	1954	
911	0	811	783	630	1975	
912	0	810	783	630	2008	
913	0	811	782	631	2048	
914	0	811	784	630	2076	
915	0	811	783	630	2093	
916	0	811	783	631	2105	
917	0	811	783	630	2110	
918	0	811	783	630	2118	
919	0	812	783	630	2122	
920	0	812	783	631	2118	
921	0	811	782	630	2105	
922	0	814	783	630	2093	
923	0	811	782	631	2088	
924	0	811	783	630	2081	
925	0	810	783	630	2074	
926	0	809	782	630	2063	
927	0	812	783	630	2051	
928	0	810	782	630	2047	
929	0	811	782	630	2047	
930	0	809	784	630	2054	
931	0	809	783	630	2066	
932	0	810	783	630	2073	
933	0	810	782	630	2081	
934	0	811	784	630	2083	
935	0	811	783	630	2082	
936	0	810	782	630	2079	
937	0	812	783	630	2068	
938	0	811	782	630	2060	
939	0	810	784	631	2049	
940	0	810	783	630	2039	
941	0	809	783	630	2034	
942	0	812	783	629	2027	
943	0	811	783	629	2020	
944	0	810	784	629	2014	
945	0	811	785	629	2014	
946	0	810	784	630	2021	
947	0	810	784	629	2033	
948	0	811	783	629	2045	
949	0	810	784	629	2052	
950	0	810	785	629	2048	
951	0	809	783	629	2041	
952	0	809	784	629	2028	
953	0	810	784	629	2019	
954	0	809	784	629	2012	
955	0	810	785	630	2005	
956	0	810	784	629	2003	
957	0	810	783	629	1998	
958	0	809	783	629	1996	
959	0	809	783	629	1994	
960	0	810	784	629	1989	
961	0	810	783	630	1987	
962	0	810	783	629	1985	
963	0	810	783	630	1987	
964	0	809	784	629	1987	
965	0	810	785	629	1990	
966	0	810	784	630	1996	
967	0	810	784	629	2001	
968	0	810	783	630	2012	
969	0	811	785	632	2018	
970	0	810	785	629	2028	
971	0	809	784	630	2037	
972	0	810	785	630	2040	
973	0	810	783	630	2038	
974	0	810	784	630	2039	
975	0	810	784	631	2038	
976	0	810	784	630	2036	
977	0	810	784	630	2040	
978	0	809	782	630	2045	
979	0	809	783	630	2052	
980	0	810	784	630	2050	
981	0	810	784	630	2039	
982	0	812	784	630	2033	
983	0	809	784	630	2041	
984	0	809	785	629	2050	
985	0	810	785	630	2063	
986	0	809	784	630	2074	
987	0	809	783	629	2078	
988	0	809	784	629	2078	
989	0	809	784	628	2074	
990	0	810	785	628	2073	
991	0	809	784	629	2074	
992	0	809	784	629	2076	
993	0	809	783	629	2086	
994	0	809	783	630	2094	
995	0	809	785	630	2084	
996	0	809	783	630	2060	
997	0	809	784	629	2041	
998	0	809	784	629	2039	
999	0	809	785	629	2044	
1000	0	810	785	629	2051	
1001	0	809	785	629	2055	
1002	0	809	784	629	2050	
1003	0	810	784	629	2046	
1004	0	809	785	629	2040	
1005	0	810	785	629	2035	
1006	0	809	783	629	2031	
1007	0	809	783	629	2028	
1008	0	809	782	629	2032	
1009	0	809	784	631	2035	
1010	0	809	784	629	2040	
1011	0	810	784	629	2049	
1012	0	811	784	630	2065	
1013	0	809	784	629	2079	
1014	0	809	783	629	2094	
1015	0	810	785	629	2109	
1016	0	808	783	629	2118	
1017	0	809	785	629	2128	
1018	0	809	784	628	2130	
1019	0	810	783	628	2128	
1020	0	811	784	629	2120	
1021	0	809	782	628	2102	
1022	0	811	783	628	2088	
1023	0	808	782	628	2079	
1024	0	809	783	628	2067	
1025	0	809	784	627	2057	
1026	0	809	784	628	2049	
1027	0	809	784	628	2039	
1028	0	809	783	628	2031	
1029	0	810	784	628	2028	
1030	0	810	785	628	2029	
1031	0	810	783	628	2036	
1032	0	809	784	628	2044	
1033	0	810	784	629	2050	
1034	0	810	784	629	2054	
1035	0	809	785	628	2056	
1036	0	809	783	629	2047	
1037	0	808	784	628	2020	
1038	0	807	784	628	1994	
1039	0	809	784	628	1980	
1040	0	809	784	629	1979	
1041	0	808	783	628	1990	
1042	0	809	783	628	2007	
1043	0	808	784	628	2027	
1044	0	810	784	627	2045	
1045	0	808	784	627	2060	
1046	0	809	783	628	2073	
1047	0	809	784	628	2084	
1048	0	808	783	629	2099	
1049	0	809	784	629	2111	
1050	0	809	784	628	2121	
1051	0	809	784	629	2133	
1052	0	808	784	628	2134	
1053	0	807	784	629	2129	
1054	0	808	784	628	2117	
1055	0	809	785	629	2100	
1056	0	808	783	629	2078	
1057	0	809	784	629	2056	
1058	0	809	784	629	2032	
1059	0	810	783	629	2016	
1060	0	810	784	629	2003	
1061	0	809	783	629	1994	
1062	0	810	784	629	1996	
1063	0	809	783	628	1995	
1064	0	809	784	628	1998	
1065	0	810	785	629	2002	
1066	0	808	784	628	2001	
1067	0	811	783	628	2004	
1068	0	808	784	630	2011	
1069	0	809	785	631	2016	
1070	0	809	784	629	2030	
1071	0	808	783	630	2045	
1072	0	811	783	629	2053	
1073	0	808	784	630	2064	
1074	0	809	784	630	2076	
1075	0	809	785	631	2100	
1076	0	808	783	630	2120	
1077	0	808	783	629	2134	
1078	0	809	783	631	2144	
1079	0	809	784	630	2148	
1080	0	809	785	631	2141	
1081	0	809	783	631	2124	
1082	0	809	784	630	2107	
1083	0	809	784	631	2085	
1084	0	808	784	630	2071	
1085	0	809	785	630	2078	
1086	0	809	783	631	2104	
1087	0	809	783	630	2128	
1088	0	809	783	630	2145	
1089	0	809	783	630	2153	
1090	0	810	783	630	2152	
1091	0	810	783	630	2143	
1092	0	810	783	630	2133	
1093	0	808	784	630	2131	
1094	0	808	784	630	2131	
1095	0	809	784	630	2127	
1096	0	809	783	630	2124	
1097	0	810	784	629	2116	
1098	0	810	784	630	2113	
1099	0	810	784	632	2107	
1100	0	809	785	629	2103	
1101	0	809	783	629	2101	
1102	0	809	785	630	2103	
1103	0	809	784	629	2105	
1104	0	810	783	629	2113	
1105	0	810	784	629	2119	
1106	0	809	784	629	2110	
1107	0	810	785	629	2095	
1108	0	809	785	628	2073	
1109	0	810	784	628	2055	
1110	0	811	785	629	2044	
1111	0	809	784	629	2034	
1112	0	810	785	629	2028	
1113	0	810	784	628	2021	
1114	0	808	784	628	2017	
1115	0	809	785	629	2015	
1116	0	810	785	629	2018	
1117	0	808	785	628	2011	
1118	0	808	785	628	2008	
1119	0	809	784	628	1996	
1120	0	809	784	628	1986	
1121	0	808	784	629	1975	
1122	0	810	783	629	1962	
1123	0	809	784	628	1953	
1124	0	810	784	629	1951	
1125	0	810	784	629	1954	
1126	0	811	783	628	1968	
1127	0	810	784	628	1986	
1128	0	810	784	628	2010	
1129	0	809	785	628	2037	
1130	0	809	785	628	2061	
1131	0	808	784	628	2080	
1132	0	807	784	628	2089	
1133	0	808	785	627	2093	
1134	0	807	785	627	2093	
1135	0	808	785	627	2091	
1136	0	806	784	626	2089	
1137	0	806	785	626	2083	
1138	0	807	785	627	2076	
1139	0	807	785	627	2068	
1140	0	807	785	627	2059	
1141	0	807	784	627	2049	
1142	0	806	785	627	2028	
1143	0	807	785	627	2008	
1144	0	808	785	627	1994	
1145	0	808	785	627	1989	
1146	0	808	784	627	1997	
1147	0	808	784	627	2007	
1148	0	808	785	627	2022	
1149	0	809	785	627	2037	
1150	0	810	786	627	2055	
1151	0	809	785	626	2068	
1152	0	809	786	627	2082	
1153	0	810	785	627	2098	
1154	0	811	787	629	2107	
1155	0	810	786	627	2116	
1156	0	810	786	627	2124	
1157	0	810	785	626	2121	
1158	0	810	785	626	2116	
1159	0	811	785	627	2108	
1160	0	811	786	628	2101	
1161	0	810	784	626	2087	
1162	0	810	786	627	2073	
1163	0	808	785	627	2053	
1164	0	810	785	627	2039	
1165	0	811	785	627	2029	
1166	0	810	784	626	2009	
1167	0	810	785	627	1981	
1168	0	808	785	627	1952	
1169	0	809	785	627	1941	
1170	0	809	786	627	1949	
1171	0	808	784	626	1963	
1172	0	809	786	628	1980	
1173	0	807	785	626	1992	
1174	0	807	785	626	1996	
1175	0	809	785	627	1987	
1176	0	810	785	627	1982	
1177	0	808	784	626	1982	
1178	0	807	785	627	1990	
1179	0	808	785	628	1991	
1180	0	808	784	626	1998	
1181	0	807	784	626	2006	
1182	0	809	783	628	2019	
1183	0	808	784	627	2037	
1184	0	807	785	627	2049	
1185	0	807	784	627	2060	
1186	0	806	783	627	2070	
1187	0	807	784	627	2074	
1188	0	807	784	628	2081	
1189	0	807	784	627	2078	
1190	0	807	785	627	2074	
1191	0	806	784	627	2071	
1192	0	806	784	626	2068	
1193	0	807	784	627	2067	
1194	0	807	784	627	2070	
1195	0	808	784	627	2077	
1196	0	806	783	626	2084	
1197	0	806	783	626	2084	
1198	0	806	783	627	2080	
1199	0	806	784	626	2059	
1200	0	806	784	627	2026	
1201	0	806	782	626	1999	
1202	0	806	783	627	1982	
1203	0	806	783	626	1976	
1204	0	807	783	626	1974	
1205	0	806	784	627	1974	
1206	0	806	783	626	1979	
1207	0	807	784	627	1984	
1208	0	807	783	627	1993	
1209	0	807	784	627	2003	
1210	0	807	784	627	2016	
1211	0	807	782	627	2032	
1212	0	808	784	628	2040	
1213	0	808	783	628	2044	
1214	0	808	784	628	2045	
1215	0	808	784	628	2044	
1216	0	806	783	627	2043	
1217	0	807	783	628	2043	
1218	0	807	783	627	2044	
1219	0	807	783	628	2044	
1220	0	808	783	627	2047	
1221	0	807	782	627	2050	
1222	0	807	783	627	2058	
1223	0	806	782	627	2070	
1224	0	807	783	627	2082	
1225	0	806	783	627	2086	
1226	0	806	782	626	2083	
1227	0	806	783	627	2075	
1228	0	807	783	627	2071	
1229	0	806	783	627	2066	
1230	0	806	783	627	2061	
1231	0	806	783	627	2055	
1232	0	808	783	628	2048	
1233	0	805	783	627	2042	
1234	0	807	782	627	2043	
1235	0	807	783	628	2046	
1236	0	808	784	627	2050	
1237	0	807	783	626	2054	
1238	0	808	783	627	2059	
1239	0	808	783	627	2057	
1240	0	808	783	628	2055	
1241	0	808	783	628	2054	
1242	0	807	783	627	2031	
1243	0	808	783	628	2003	
1244	0	808	784	629	1959	
1245	0	807	783	628	1948	
1246	0	807	783	628	1957	
1247	0	806	783	627	1971	
1248	0	806	783	627	1990	
1249	0	807	784	627	2002	
1250	0	806	783	628	2020	
1251	0	807	783	627	2044	
1252	0	806	783	626	2069	
1253	0	806	783	627	2095	
1254	0	806	783	627	2108	
1255	0	806	783	627	2120	
1256	0	806	784	628	2128	
1257	0	805	782	627	2129	
1258	0	806	783	627	2131	
1259	0	807	784	628	2118	
1260	0	807	784	627	2098	
1261	0	806	782	626	2080	
1262	0	808	783	628	2067	
1263	0	806	783	627	2060	
1264	0	806	784	627	2057	
1265	0	807	783	626	2056	
1266	0	807	783	626	2053	
1267	0	807	783	627	2048	
1268	0	807	782	627	2048	
1269	0	806	782	627	2049	
1270	0	807	783	627	2048	
1271	0	806	782	628	2046	
1272	0	806	783	628	2042	
1273	0	806	782	627	2039	
1274	0	806	783	628	2036	
1275	0	807	783	627	2033	
1276	0	806	783	627	2025	
1277	0	806	783	627	2016	
1278	0	806	783	627	2016	
1279	0	807	782	628	2019	
1280	0	807	783	627	2025	
1281	0	806	782	627	2035	
1282	0	806	782	628	2045	
1283	0	806	782	627	2057	
1284	0	806	783	627	2067	
1285	0	806	783	627	2073	
1286	0	806	783	627	2076	
1287	0	807	783	628	2076	
1288	0	807	783	627	2070	
1289	0	807	783	628	2061	
1290	0	808	783	629	2045	
1291	0	808	784	628	2032	
1292	0	807	782	628	2019	
1293	0	807	783	628	2016	
1294	0	808	784	628	2013	
1295	0	807	783	628	2011	
1296	0	807	784	628	2013	
1297	0	807	783	627	2017	
1298	0	807	783	628	2029	
1299	0	807	783	628	2030	
1300	0	806	784	628	2032	
1301	0	806	783	627	2036	
1302	0	807	783	628	2045	
1303	0	807	783	628	2053	
1304	0	806	782	628	2062	
1305	0	806	783	627	2068	
1306	0	806	783	628	2072	
1307	0	806	783	628	2071	
1308	0	807	783	628	2070	
1309	0	807	783	628	2066	
1310	0	807	784	629	2062	
1311	0	806	783	627	2062	
1312	0	806	783	628	2058	
1313	0	806	782	628	2056	
1314	0	806	782	628	2055	
1315	0	807	783	628	2056	
1316	0	806	782	628	2056	
1317	0	807	783	629	2051	
1318	0	807	783	629	2047	
1319	0	808	783	629	2044	
1320	0	808	783	629	2047	
1321	0	808	783	628	2056	
1322	0	807	783	629	2066	
1323	0	807	783	629	2075	
1324	0	807	782	629	2077	
1325	0	807	783	629	2078	
1326	0	807	783	628	2079	
1327	0	808	784	629	2085	
1328	0	807	783	628	2082	
1329	0	807	783	628	2072	
1330	0	807	784	630	2060	
1331	0	808	784	629	2049	
1332	0	807	783	628	2038	
1333	0	807	783	629	2039	
1334	0	807	783	629	2043	
1335	0	807	783	629	2055	
1336	0	807	784	629	2066	
1337	0	806	783	629	2073	
1338	0	807	783	629	2079	
1339	0	808	784	629	2076	
1340	0	808	784	629	2080	
1341	0	808	784	629	2087	
1342	0	807	783	628	2092	
1343	0	807	783	628	2100	
1344	0	807	784	629	2109	
1345	0	807	784	628	2119	
1346	0	807	783	627	2128	
1347	0	809	784	629	2126	
1348	0	810	783	627	2105	
1349	0	808	783	628	2089	
1350	0	808	783	628	2085	
1351	0	807	783	628	2096	
1352	0	807	783	628	2110	
1353	0	807	783	629	2122	
1354	0	806	782	628	2120	
1355	0	808	783	629	2106	
1356	0	807	783	628	2090	
1357	0	807	783	628	2077	
1358	0	808	783	628	2066	
1359	0	807	783	627	2047	
1360	0	807	784	629	2031	
1361	0	807	784	628	2022	
1362	0	807	783	628	2013	
1363	0	808	783	628	2015	
1364	0	809	783	628	2021	
1365	0	809	784	628	2028	
1366	0	808	784	628	2040	
1367	0	808	783	628	2052	
1368	0	808	783	628	2071	
1369	0	807	782	628	2084	
1370	0	808	783	629	2090	
1371	0	808	782	628	2091	
1372	0	807	783	627	2088	
1373	0	807	783	627	2091	
1374	0	807	783	627	2092	
1375	0	808	783	628	2091	
1376	0	807	783	628	2093	
1377	0	807	783	628	2088	
1378	0	807	784	627	2080	
1379	0	808	784	629	2067	
1380	0	807	784	629	2051	
1381	0	807	783	628	2034	
1382	0	808	784	629	2020	
1383	0	808	784	628	2010	
1384	0	807	784	628	2009	
1385	0	808	784	629	2011	
1386	0	807	783	628	2013	
1387	0	807	783	628	2015	
1388	0	808	783	629	2026	
1389	0	809	784	628	2036	
1390	0	808	784	629	2047	
1391	0	809	784	629	2053	
1392	0	808	783	628	2047	
1393	0	807	783	628	2040	
1394	0	807	784	628	2036	
1395	0	809	785	629	2037	
1396	0	809	784	628	2039	
1397	0	809	785	628	2043	
1398	0	811	784	628	2044	
1399	0	808	784	628	2041	
1400	0	809	784	629	2036	
1401	0	808	783	629	2028	
1402	0	809	783	628	2024	
1403	0	809	785	628	2030	
1404	0	809	784	629	2038	
1405	0	808	784	629	2043	
1406	0	808	784	629	2045	
1407	0	808	784	629	2038	
1408	0	808	783	630	2040	
1409	0	809	784	630	2044	
1410	0	808	783	631	2052	
1411	0	809	784	630	2064	
1412	0	807	783	629	2069	
1413	0	807	784	628	2079	
1414	0	808	783	630	2077	
1415	0	807	784	630	2073	
1416	0	807	784	629	2062	
1417	0	808	787	629	2046	
1418	0	807	784	629	2034	
1419	0	808	784	630	2024	
1420	0	808	784	629	2015	
1421	0	808	784	630	2007	
1422	0	809	784	629	1993	
1423	0	808	784	629	1980	
1424	0	809	784	630	1969	
1425	0	809	784	630	1962	
1426	0	809	784	630	1968	
1427	0	809	784	630	1980	
1428	0	809	785	629	1996	
1429	0	809	784	630	2009	
1430	0	809	785	629	2018	
1431	0	808	785	629	2028	
1432	0	808	785	629	2034	
1433	0	808	785	629	2039	
1434	0	809	785	630	2041	
1435	0	809	785	629	2041	
1436	0	808	785	630	2045	
1437	0	809	784	629	2048	
1438	0	809	784	629	2055	
1439	0	809	784	630	2064	
1440	0	809	785	630	2070	
1441	0	809	785	629	2072	
1442	0	809	785	630	2056	
1443	0	809	785	629	2028	
1444	0	807	785	629	2011	
1445	0	809	785	630	2011	
1446	0	808	785	629	2017	
1447	0	808	784	629	2023	
1448	0	808	785	628	2026	
1449	0	809	786	632	2022	
1450	0	808	785	629	2018	
1451	0	808	786	630	2012	
1452	0	807	785	629	1989	
1453	0	807	785	628	1968	
1454	0	808	785	629	1945	
1455	0	808	785	629	1925	
1456	0	809	786	629	1917	
1457	0	810	785	629	1917	
1458	0	811	785	628	1931	
1459	0	813	786	629	1950	
1460	0	813	786	629	1972	
1461	0	812	786	629	1996	
1462	0	814	789	629	2014	
1463	0	812	786	629	2030	
1464	0	811	785	629	2043	
1465	0	811	785	629	2055	
1466	0	809	785	628	2070	
1467	0	810	785	627	2078	
1468	0	809	785	628	2082	
1469	0	810	785	629	2081	
1470	0	809	786	629	2078	
1471	0	809	786	628	2076	
1472	0	808	786	627	2068	
1473	0	809	786	627	2060	
1474	0	808	786	628	2053	
1475	0	808	787	629	2044	
1476	0	807	786	628	2028	
1477	0	808	786	628	1999	
1478	0	808	786	628	1967	
1479	0	808	786	629	1937	
1480	0	806	786	630	1916	
1481	0	806	786	628	1913	
1482	0	807	786	628	1923	
1483	0	807	786	628	1941	
1484	0	807	786	628	1958	
1485	0	807	786	630	1970	
1486	0	807	786	628	1986	
1487	0	808	787	628	2004	
1488	0	810	785	628	2022	
1489	0	808	785	628	2047	
1490	0	810	787	628	2070	
1491	0	810	788	628	2093	
1492	0	810	787	628	2101	
1493	0	810	786	627	2102	
1494	0	812	787	628	2095	
1495	0	811	786	629	2083	
1496	0	811	786	629	2076	
1497	0	811	786	628	2064	
1498	0	811	785	627	2057	
1499	0	811	786	628	2048	
1500	0	811	787	628	2044	
1501	0	810	786	627	2042	
1502	0	810	788	628	2048	
1503	0	809	785	626	2062	
1504	0	807	786	627	2070	
1505	0	809	786	629	2077	
1506	0	809	786	628	2082	
1507	0	810	786	627	2084	
1508	0	810	787	627	2081	
1509	0	808	787	628	2077	
1510	0	810	786	629	2076	
1511	0	809	786	628	2076	
1512	0	810	786	627	2076	
1513	0	810	786	628	2076	
1514	0	808	786	627	2070	
1515	0	809	786	629	2056	
1516	0	810	786	628	2042	
1517	0	810	785	628	2029	
1518	0	810	786	627	2016	
1519	0	809	786	627	2007	
1520	0	811	786	629	2000	
1521	0	810	786	628	1997	
1522	0	809	786	628	2000	
1523	0	810	785	628	2009	
1524	0	809	786	628	2020	
1525	0	810	786	631	2030	
1526	0	809	785	628	2033	
1527	0	810	785	629	2035	
1528	0	809	785	628	2041	
1529	0	810	786	629	2035	
1530	0	809	786	630	2025	
1531	0	810	785	628	2014	
1532	0	810	786	628	2004	
1533	0	812	785	627	1994	
1534	0	810	785	627	1995	
1535	0	810	786	628	2000	
1536	0	809	786	628	2003	
1537	0	808	785	628	1997	
1538	0	808	784	627	1992	
1539	0	809	785	629	1983	
1540	0	809	784	628	1964	
1541	0	808	785	628	1942	
1542	0	809	786	629	1932	
1543	0	809	786	629	1938	
1544	0	808	785	628	1968	
1545	0	809	786	629	2003	
1546	0	808	785	628	2029	
1547	0	809	786	628	2049	
1548	0	809	785	629	2060	
1549	0	808	785	627	2073	
1550	0	808	784	628	2082	
1551	0	810	784	628	2093	
1552	0	809	785	628	2099	
1553	0	810	786	627	2107	
1554	0	809	785	628	2113	
1555	0	808	785	629	2112	
1556	0	809	785	629	2107	
1557	0	809	784	628	2096	
1558	0	810	785	627	2078	
1559	0	808	785	628	2055	
1560	0	808	785	629	2035	
1561	0	809	785	628	2025	
1562	0	809	785	628	2019	
1563	0	809	784	628	2016	
1564	0	809	784	629	2009	
1565	0	809	785	630	2000	
1566	0	809	785	629	1995	
1567	0	809	785	628	1991	
1568	0	809	785	628	1991	
1569	0	809	785	630	1992	
1570	0	808	785	630	1995	
1571	0	810	785	628	2002	
1572	0	810	785	628	2008	
1573	0	809	785	628	2008	
1574	0	809	786	629	2000	
1575	0	808	786	629	1994	
1576	0	810	786	629	1991	
1577	0	809	785	629	1986	
1578	0	810	785	629	1988	
1579	0	812	785	630	1998	
1580	0	810	786	630	2016	
1581	0	808	785	629	2033	
1582	0	809	786	629	2049	
1583	0	811	784	629	2059	
1584	0	809	786	629	2068	
1585	0	810	786	629	2073	
1586	0	809	785	628	2070	
1587	0	810	786	629	2074	
1588	0	811	787	629	2078	
1589	0	811	785	629	2088	
1590	0	809	785	629	2097	
1591	0	810	784	630	2098	
1592	0	810	784	629	2095	
1593	0	809	784	629	2090	
1594	0	810	785	630	2082	
1595	0	809	786	629	2073	
1596	0	809	785	628	2063	
1597	0	809	785	629	2051	
1598	0	810	785	629	2036	
1599	0	809	784	629	2017	
1600	0	809	785	629	2000	
1601	0	810	785	629	1991	
1602	0	809	785	629	1992	
1603	0	810	785	629	1999	
1604	0	810	785	630	2006	
1605	0	809	785	630	2015	
1606	0	810	784	628	2026	
1607	0	810	785	629	2033	
1608	0	810	785	629	2032	
1609	0	809	785	630	2033	
1610	0	809	785	629	2037	
1611	0	809	785	629	2049	
1612	0	809	785	629	2066	
1613	0	809	785	629	2080	
1614	0	810	785	630	2087	
1615	0	810	785	629	2089	
1616	0	811	786	629	2081	
1617	0	810	785	628	2065	
1618	0	809	784	629	2055	
1619	0	812	785	628	2052	
1620	0	811	785	629	2053	
1621	0	810	785	628	2049	
1622	0	811	785	629	2046	
1623	0	811	783	630	2033	
1624	0	810	785	629	2028	
1625	0	811	785	629	2026	
1626	0	810	784	629	2026	
1627	0	812	785	629	2032	
1628	0	811	784	629	2033	
1629	0	811	785	629	2034	
1630	0	810	785	629	2038	
1631	0	811	785	629	2043	
1632	0	810	785	629	2046	
1633	0	810	784	628	2058	
1634	0	812	785	629	2066	
1635	0	810	785	629	2069	
1636	0	811	785	629	2073	
1637	0	809	785	628	2070	
1638	0	810	785	629	2069	
1639	0	811	785	629	2065	
1640	0	810	786	629	2059	
1641	0	810	785	629	2050	
1642	0	810	785	630	2045	
1643	0	811	784	630	2039	
1644	0	809	785	630	2040	
1645	0	808	786	630	2040	
1646	0	810	785	629	2041	
1647	0	810	785	629	2035	
1648	0	810	785	629	2030	
1649	0	810	785	629	2029	
1650	0	809	785	631	2033	
1651	0	809	785	629	2040	
1652	0	809	785	629	2047	
1653	0	809	784	630	2051	
1654	0	809	784	630	2053	
1655	0	810	785	631	2053	
1656	0	810	785	630	2053	
1657	0	811	785	630	2052	
1658	0	811	785	630	2051	
1659	0	811	785	630	2050	
1660	0	810	785	631	2050	
1661	0	810	785	630	2049	
1662	0	811	785	630	2048	
1663	0	810	785	630	2049	
1664	0	810	785	630	2052	
1665	0	810	786	631	2055	
1666	0	810	785	630	2056	
1667	0	811	785	631	2058	
1668	0	810	785	630	2042	
1669	0	809	785	630	2008	
1670	0	809	785	630	1979	
1671	0	810	786	631	1975	
1672	0	810	785	630	1984	
1673	0	810	785	630	2000	
1674	0	810	785	630	2012	
1675	0	810	785	631	2011	
1676	0	810	785	630	2005	
1677	0	810	785	630	2000	
1678	0	809	784	631	2001	
1679	0	809	784	630	2005	
1680	0	810	785	631	2008	
1681	0	811	784	629	2010	
1682	0	811	784	629	2004	
1683	0	811	784	629	2004	
1684	0	810	784	629	2005	
1685	0	811	785	629	2004	
1686	0	811	785	629	2011	
1687	0	811	784	629	2024	
1688	0	811	785	629	2037	
1689	0	810	784	630	2045	
1690	0	811	785	631	2051	
1691	0	811	784	628	2057	
1692	0	810	784	629	2071	
1693	0	811	784	629	2089	
1694	0	812	784	629	2103	
1695	0	810	784	629	2114	
1696	0	812	785	631	2118	
1697	0	811	784	629	2110	
1698	0	810	784	630	2104	
1699	0	812	784	630	2100	
1700	0	811	784	630	2099	
1701	0	811	784	628	2093	
1702	0	812	785	630	2088	
1703	0	812	784	630	2078	
1704	0	813	783	629	2069	
1705	0	812	784	629	2050	
1706	0	811	784	628	2028	
1707	0	811	785	629	2015	
1708	0	812	784	630	2003	
1709	0	812	783	629	1999	
1710	0	811	785	629	2001	
1711	0	811	784	629	2001	
1712	0	812	785	630	2003	
1713	0	812	783	630	1998	
1714	0	811	783	629	1997	
1715	0	811	785	630	1995	
1716	0	811	784	629	1986	
1717	0	811	785	630	1984	
1718	0	811	785	630	1987	
1719	0	811	785	629	2001	
1720	0	811	785	630	2017	
1721	0	810	784	629	2033	
1722	0	812	785	630	2051	
1723	0	812	784	630	2066	
1724	0	812	784	629	2081	
1725	0	811	785	630	2093	
1726	0	810	784	629	2092	
1727	0	811	785	629	2085	
1728	0	810	785	630	2079	
1729	0	811	784	629	2072	
1730	0	810	785	629	2071	
1731	0	810	785	629	2072	
1732	0	811	784	629	2069	
1733	0	810	784	630	2063	
1734	0	812	784	630	2060	
1735	0	811	785	630	2060	
1736	0	811	784	630	2066	
1737	0	812	784	630	2069	
1738	0	811	784	630	2071	
1739	0	812	784	630	2067	
1740	0	810	784	630	2062	
1741	0	811	784	629	2061	
1742	0	812	785	630	2061	
1743	0	812	784	630	2067	
1744	0	812	785	630	2078	
1745	0	811	785	630	2084	
1746	0	811	784	629	2088	
1747	0	812	785	630	2090	
1748	0	812	785	630	2089	
1749	0	813	785	630	2089	
1750	0	812	786	630	2084	
1751	0	812	785	629	2079	
1752	0	812	785	630	2069	
1753	0	812	785	630	2063	
1754	0	812	786	631	2055	
1755	0	812	785	630	2049	
1756	0	812	785	629	2048	
1757	0	811	785	630	2042	
1758	0	810	785	629	2034	
1759	0	812	785	630	2022	
1760	0	812	785	630	2010	
1761	0	812	784	629	2001	
1762	0	811	785	629	1993	
1763	0	812	784	629	1990	
1764	0	813	784	629	1992	
1765	0	812	785	629	1996	
1766	0	811	785	629	2007	
1767	0	811	784	629	2015	
1768	0	810	784	629	2024	
1769	0	812	784	630	2034	
1770	0	811	785	629	2041	
1771	0	811	784	629	2046	
1772	0	811	784	629	2040	
1773	0	812	784	630	2032	
1774	0	812	784	630	2024	
1775	0	812	785	630	2016	
1776	0	812	784	629	2014	
1777	0	812	785	629	2012	
1778	0	813	785	629	2014	
1779	0	812	785	630	2019	
1780	0	812	784	630	2025	
1781	0	812	784	629	2035	
1782	0	811	784	629	2043	
1783	0	812	784	629	2050	
1784	0	812	784	631	2053	
1785	0	812	785	630	2051	
1786	0	811	784	629	2043	
1787	0	811	785	630	2029	
1788	0	813	785	630	2000	
1789	0	813	784	630	1976	
1790	0	813	785	630	1972	
1791	0	812	784	629	1983	
1792	0	812	786	630	2007	
1793	0	812	786	629	2022	
1794	0	811	785	629	2035	
1795	0	813	786	629	2051	
1796	0	812	785	628	2069	
1797	0	812	786	630	2090	
1798	0	812	788	629	2100	
1799	0	812	786	630	2099	
1800	0	812	786	629	2089	
1801	0	811	785	627	2070	
1802	0	810	787	629	2053	
1803	0	812	786	629	2040	
1804	0	812	785	629	2038	
1805	0	810	786	629	2043	
1806	0	810	785	628	2046	
1807	0	811	786	629	2049	
1808	0	813	784	629	2045	
1809	0	813	785	629	2049	
1810	0	812	786	629	2061	
1811	0	812	785	629	2072	
1812	0	811	786	630	2088	
1813	0	813	787	630	2099	
1814	0	812	785	629	2108	
1815	0	813	786	629	2111	
1816	0	813	786	629	2109	
1817	0	812	785	629	2098	
1818	0	812	785	630	2090	
1819	0	813	786	630	2077	
1820	0	812	785	629	2062	
1821	0	812	786	629	2051	
1822	0	812	785	628	2035	
1823	0	812	786	629	2024	
1824	0	813	785	628	2009	
1825	0	812	786	629	2000	
1826	0	811	785	628	2002	
1827	0	811	785	628	2009	
1828	0	812	785	628	2022	
1829	0	813	786	628	2039	
1830	0	812	786	628	2050	
1831	0	813	785	628	2058	
1832	0	812	785	628	2064	
1833	0	812	785	628	2066	
1834	0	812	785	629	2069	
1835	0	812	785	629	2070	
1836	0	812	785	628	2069	
1837	0	813	785	629	2073	
1838	0	814	785	629	2080	
1839	0	814	784	629	2086	
1840	0	812	785	629	2092	
1841	0	812	785	628	2093	
1842	0	812	785	628	2086	
1843	0	813	785	629	2078	
1844	0	812	785	629	2069	
1845	0	812	785	629	2055	
1846	0	812	785	629	2039	
1847	0	812	785	629	2020	
1848	0	813	785	629	2003	
1849	0	812	785	628	1991	
1850	0	813	785	629	1990	
1851	0	813	785	628	1990	
1852	0	813	785	629	1989	
1853	0	813	785	629	1991	
1854	0	814	785	629	1994	
1855	0	813	785	629	1997	
1856	0	812	785	629	2003	
1857	0	812	785	629	2007	
1858	0	813	784	629	2008	
1859	0	812	785	629	2011	
1860	0	812	785	629	2012	
1861	0	811	785	628	2013	
1862	0	811	785	629	2012	
1863	0	812	785	629	2010	
1864	0	814	784	629	2010	
1865	0	813	785	629	2006	
1866	0	812	784	628	2000	
1867	0	812	785	630	1990	
1868	0	812	785	629	1982	
1869	0	812	785	629	1976	
1870	0	811	785	629	1977	
1871	0	810	785	630	1983	
1872	0	810	786	630	1995	
1873	0	812	787	629	1999	
1874	0	812	785	629	1982	
1875	0	812	785	629	1939	
1876	0	813	786	630	1903	
1877	0	812	784	629	1890	
1878	0	812	784	629	1904	
1879	0	813	785	630	1931	
1880	0	811	785	629	1961	
1881	0	812	785	630	1994	
1882	0	812	785	628	2022	
1883	0	812	785	629	2043	
1884	0	812	786	630	2053	
1885	0	811	785	629	2069	
1886	0	812	786	629	2099	
1887	0	812	784	629	2127	
1888	0	811	785	629	2154	
1889	0	812	786	630	2172	
1890	0	811	785	629	2176	
1891	0	812	785	629	2174	
1892	0	811	785	628	2163	
1893	0	812	785	629	2159	
1894	0	812	785	630	2159	
1895	0	811	785	629	2159	
1896	0	813	785	630	2155	
1897	0	813	784	628	2141	
1898	0	813	784	629	2121	
1899	0	812	784	629	2091	
1900	0	812	785	629	2056	
1901	0	812	784	628	2020	
1902	0	811	785	629	1995	
1903	0	812	784	629	1983	
1904	0	813	784	628	1978	
1905	0	812	785	629	1976	
1906	0	812	785	628	1980	
1907	0	812	784	628	1994	
1908	0	813	784	628	2017	
1909	0	814	784	628	2043	
1910	0	813	784	629	2063	
1911	0	812	784	629	2076	
1912	0	812	784	629	2085	
1913	0	811	784	629	2095	
1914	0	812	784	628	2101	
1915	0	811	785	629	2100	
1916	0	811	785	628	2093	
1917	0	811	785	628	2085	
1918	0	812	784	628	2076	
1919	0	813	784	628	2074	
1920	0	812	784	629	2072	
1921	0	812	784	629	2072	
1922	0	812	784	629	2070	
1923	0	812	784	629	2068	
1924	0	812	785	628	2072	
1925	0	811	786	629	2078	
1926	0	811	785	629	2084	
1927	0	811	785	629	2084	
1928	0	811	784	629	2083	
1929	0	811	785	629	2085	
1930	0	811	785	629	2085	
1931	0	811	784	629	2088	
1932	0	810	785	630	2086	
1933	0	812	787	629	2076	
1934	0	812	785	629	2067	
1935	0	812	786	629	2065	
1936	0	810	784	629	2063	
1937	0	809	786	630	2062	
1938	0	810	787	629	2056	
1939	0	810	785	630	2053	
1940	0	811	786	630	2056	
1941	0	810	785	629	2055	
1942	0	809	785	630	2057	
1943	0	812	787	629	2055	
1944	0	811	784	629	2055	
1945	0	811	784	629	2053	
1946	0	811	784	629	2047	
1947	0	811	784	629	2038	
1948	0	812	784	629	2027	
1949	0	812	784	629	2024	
1950	0	811	785	629	2028	
1951	0	810	784	629	2030	
1952	0	810	784	629	2035	
1953	0	811	784	629	2039	
1954	0	813	784	629	2035	
1955	0	811	784	629	2029	
1956	0	811	784	629	2022	
1957	0	810	785	629	2022	
1958	0	811	785	629	2027	
1959	0	811	783	629	2033	
1960	0	810	785	629	2034	
1961	0	810	784	629	2028	
1962	0	810	784	629	2022	
1963	0	810	784	629	2017	
1964	0	811	784	630	2012	
1965	0	810	783	630	2009	
1966	0	810	783	629	2008	
1967	0	810	784	629	2002	
1968	0	811	784	629	1999	
1969	0	811	783	630	1998	
1970	0	811	783	630	1999	
1971	0	812	784	631	2003	
1972	0	812	783	630	2004	
1973	0	812	784	630	1992	
1974	0	811	784	630	1974	
1975	0	812	784	630	1969	
1976	0	811	784	629	1982	
1977	0	809	784	631	2015	
1978	0	812	786	630	2050	
1979	0	811	784	630	2080	
1980	0	811	784	630	2105	
1981	0	810	784	629	2116	
1982	0	810	785	630	2126	
1983	0	810	785	630	2130	
1984	0	810	784	629	2137	
1985	0	811	784	630	2144	
1986	0	810	784	629	2150	
1987	0	809	784	630	2162	
1988	0	812	783	630	2166	
1989	0	812	782	629	2171	
1990	0	811	783	629	2167	
1991	0	813	784	630	2164	
1992	0	811	784	629	2160	
1993	0	812	784	629	2167	
1994	0	812	784	629	2172	
1995	0	813	784	629	2174	
1996	0	812	783	628	2160	
1997	0	810	784	632	2141	
1998	0	811	784	629	2120	
1999	0	812	782	629	2105	
2000	0	810	783	629	2089	
2001	0	811	783	629	2074	
2002	0	810	784	629	2065	
2003	0	812	783	629	2064	
2004	0	812	782	629	2070	
2005	0	811	783	630	2077	
2006	0	812	783	629	2081	
2007	0	811	783	629	2085	
2008	0	812	784	630	2086	
2009	0	812	782	629	2091	
2010	0	810	783	629	2095	
2011	0	810	784	629	2093	
2012	0	810	784	629	2092	
2013	0	810	784	629	2093	
2014	0	812	783	629	2099	
2015	0	811	784	629	2101	
2016	0	812	784	628	2092	
2017	0	811	783	629	2073	
2018	0	811	784	629	2049	
2019	0	812	784	629	2023	
2020	0	810	783	630	2004	
2021	0	810	783	629	1990	
2022	0	811	783	629	1980	
2023	0	811	783	629	1976	
2024	0	812	783	630	1976	
2025	0	811	783	630	1982	
2026	0	811	783	629	1993	
2027	0	812	784	630	2008	
2028	0	813	784	630	2018	
2029	0	812	783	629	2024	
2030	0	812	782	630	2037	
2031	0	812	784	629	2048	
2032	0	812	784	633	2052	
2033	0	812	783	630	2049	
2034	0	813	783	629	2039	
2035	0	811	783	630	2025	
2036	0	812	783	629	2013	
2037	0	812	783	629	2006	
2038	0	812	784	629	2007	
2039	0	812	783	629	2011	
2040	0	809	783	629	2015	
2041	0	809	783	630	2017	
2042	0	809	783	629	2023	
2043	0	808	783	630	2033	
2044	0	809	783	629	2044	
2045	0	807	784	629	2047	
2046	0	807	784	629	2048	
2047	0	807	783	629	2049	
2048	0	807	783	629	2047	
2049	0	809	784	629	2047	
2050	0	807	783	630	2048	
2051	0	807	783	629	2048	
2052	0	808	783	630	2050	
2053	0	808	783	630	2054	
2054	0	809	783	629	2046	
2055	0	807	783	630	2035	
2056	0	809	783	629	2033	
2057	0	809	784	630	2046	
2058	0	810	785	629	2054	
2059	0	810	784	628	2065	
2060	0	809	783	629	2067	
2061	0	811	785	629	2068	
2062	0	811	783	629	2065	
2063	0	812	784	628	2071	
2064	0	812	784	629	2075	
2065	0	811	783	628	2073	
2066	0	814	785	629	2076	
2067	0	813	783	628	2071	
2068	0	813	783	628	2054	
2069	0	814	784	629	2042	
2070	0	812	783	629	2035	
2071	0	812	783	629	2034	
2072	0	812	784	629	2041	
2073	0	811	785	629	2043	
2074	0	811	785	629	2047	
2075	0	811	784	630	2051	
2076	0	809	783	629	2054	
2077	0	809	783	629	2063	
2078	0	810	784	629	2064	
2079	0	809	783	629	2065	
2080	0	809	784	630	2070	
2081	0	809	783	629	2071	
2082	0	808	784	630	2076	
2083	0	808	785	630	2069	
2084	0	807	785	630	2064	
2085	0	807	783	630	2061	
2086	0	807	784	629	2059	
2087	0	807	783	629	2060	
2088	0	807	784	629	2060	
2089	0	808	783	628	2057	
2090	0	807	783	629	2054	
2091	0	808	783	629	2050	
2092	0	808	783	630	2047	
2093	0	808	783	629	2042	
2094	0	808	783	628	2039	
2095	0	807	783	629	2038	
2096	0	809	783	629	2033	
2097	0	809	783	629	2029	
2098	0	810	784	628	2030	
2099	0	809	784	628	2037	
2100	0	809	783	628	2047	
2101	0	810	784	628	2055	
2102	0	809	784	628	2062	
2103	0	810	783	628	2064	
2104	0	811	784	628	2064	
2105	0	809	784	629	2063	
2106	0	810	784	629	2055	
2107	0	810	784	628	2036	
2108	0	810	784	629	2003	
2109	0	809	783	629	1962	
2110	0	809	784	629	1931	
2111	0	810	784	629	1913	
2112	0	809	784	629	1915	
2113	0	810	784	629	1928	
2114	0	810	785	629	1946	
2115	0	809	784	629	1963	
2116	0	810	784	628	1985	
2117	0	810	784	628	2010	
2118	0	810	784	629	2037	
2119	0	810	784	629	2063	
2120	0	809	784	630	2090	
2121	0	811	784	629	2110	
2122	0	811	784	629	2123	
2123	0	810	785	629	2125	
2124	0	810	784	629	2122	
2125	0	810	785	629	2117	
2126	0	810	785	629	2110	
2127	0	810	784	629	2104	
2128	0	811	785	629	2101	
2129	0	811	785	629	2094	
2130	0	810	785	629	2083	
2131	0	810	786	629	2072	
2132	0	810	786	629	2068	
2133	0	810	785	629	2066	
2134	0	811	784	628	2048	
2135	0	809	784	628	2027	
2136	0	810	785	629	2015	
2137	0	810	785	629	2016	
2138	0	809	784	629	2022	
2139	0	810	785	629	2026	
2140	0	809	785	628	2023	
2141	0	810	785	628	2019	
2142	0	810	786	629	2018	
2143	0	811	786	628	2006	
2144	0	811	785	629	1995	
2145	0	811	786	629	1984	
2146	0	810	785	629	1980	
2147	0	810	786	629	1994	
2148	0	811	786	628	2012	
2149	0	810	786	629	2040	
2150	0	810	786	629	2073	
2151	0	810	784	629	2100	
2152	0	810	785	629	2121	
2153	0	811	785	628	2127	
2154	0	811	785	628	2123	
2155	0	809	784	629	2113	
2156	0	809	785	628	2100	
2157	0	810	785	628	2095	
2158	0	812	785	628	2089	
2159	0	811	784	629	2083	
2160	0	811	785	629	2075	
2161	0	810	785	628	2061	
2162	0	810	785	629	2050	
2163	0	811	785	628	2038	
2164	0	810	785	629	2032	
2165	0	811	785	629	2034	
2166	0	811	784	629	2036	
2167	0	811	786	629	2047	
2168	0	811	785	627	2054	
2169	0	811	785	628	2059	
2170	0	811	786	629	2063	
2171	0	810	785	629	2063	
2172	0	810	785	629	2073	
2173	0	811	786	628	2078	
2174	0	810	785	629	2085	
2175	0	810	786	629	2092	
2176	0	810	785	628	2093	
2177	0	811	786	629	2090	
2178	0	811	784	628	2086	
2179	0	810	785	628	2078	
2180	0	809	784	628	2071	
2181	0	810	784	628	2067	
2182	0	810	784	629	2068	
2183	0	809	785	628	2071	
2184	0	810	785	628	2075	
2185	0	809	784	629	2074	
2186	0	809	785	629	2066	
2187	0	809	785	629	2058	
2188	0	809	784	629	2050	
2189	0	809	785	629	2047	
2190	0	809	784	629	2044	
2191	0	810	784	629	2037	
2192	0	810	784	629	2030	
2193	0	810	784	629	2022	
2194	0	810	785	628	2018	
2195	0	808	784	629	2020	
2196	0	809	785	628	2022	
2197	0	809	785	628	2028	
2198	0	809	784	628	2038	
2199	0	809	785	629	2051	
2200	0	809	784	629	2065	
2201	0	809	785	629	2073	
2202	0	810	785	629	2079	
2203	0	810	785	628	2081	
2204	0	811	785	629	2081	
2205	0	809	784	629	2070	
2206	0	809	784	629	2056	
2207	0	809	784	629	2050	
2208	0	810	785	628	2047	
2209	0	810	785	628	2050	
2210	0	811	785	629	2057	
2211	0	809	784	629	2060	
2212	0	809	784	629	2064	
2213	0	810	784	628	2069	
2214	0	810	785	629	2070	
2215	0	808	784	629	2062	
2216	0	810	785	629	2049	
2217	0	810	784	628	2030	
2218	0	810	784	628	2017	
2219	0	811	785	629	2009	
2220	0	809	784	628	1983	
2221	0	810	785	629	1951	
2222	0	809	784	628	1926	
2223	0	809	783	628	1924	
2224	0	810	784	629	1942	
2225	0	810	784	628	1963	
2226	0	810	785	629	1991	
2227	0	809	783	628	2015	
2228	0	809	784	628	2039	
2229	0	809	784	628	2064	
2230	0	808	784	628	2089	
2231	0	810	785	629	2109	
2232	0	809	784	628	2119	
2233	0	810	784	627	2129	
2234	0	809	785	628	2138	
2235	0	810	785	629	2148	
2236	0	809	784	628	2151	
2237	0	809	784	628	2149	
2238	0	809	784	628	2145	
2239	0	809	785	628	2140	
2240	0	808	784	629	2134	
2241	0	808	784	629	2127	
2242	0	808	784	628	2123	
2243	0	808	786	627	2122	
2244	0	808	785	628	2122	
2245	0	808	784	629	2119	
2246	0	808	784	628	2109	
2247	0	809	784	628	2093	
2248	0	808	785	628	2071	
2249	0	808	784	628	2055	
2250	0	808	785	629	2044	
2251	0	809	785	628	2031	
2252	0	809	784	628	2027	
2253	0	809	785	628	2027	
2254	0	810	785	628	2030	
2255	0	810	785	629	2034	
2256	0	809	784	629	2043	
2257	0	810	784	629	2061	
2258	0	810	785	628	2082	
2259	0	810	785	628	2102	
2260	0	809	785	629	2119	
2261	0	809	785	629	2129	
2262	0	809	785	628	2137	
2263	0	809	786	628	2142	
2264	0	810	786	628	2141	
2265	0	810	785	629	2139	
2266	0	810	784	629	2135	
2267	0	810	784	629	2132	
2268	0	809	784	629	2130	
2269	0	810	785	630	2128	
2270	0	809	783	630	2119	
2271	0	811	784	631	2107	
2272	0	809	784	629	2092	
2273	0	810	783	629	2080	
2274	0	810	785	629	2073	
2275	0	809	784	629	2065	
2276	0	810	785	630	2061	
2277	0	809	784	629	2053	
2278	0	809	785	629	2050	
2279	0	810	784	628	2049	
2280	0	810	785	630	2048	
2281	0	808	784	629	2040	
2282	0	809	783	630	2034	
2283	0	810	785	628	2023	
2284	0	809	785	629	2025	
2285	0	811	785	630	2038	
2286	0	810	784	629	2050	
2287	0	809	784	629	2063	
2288	0	809	785	628	2073	
2289	0	810	785	628	2081	
2290	0	809	784	629	2086	
2291	0	809	784	629	2084	
2292	0	809	783	629	2079	
2293	0	810	785	629	2067	
2294	0	809	786	629	2060	
2295	0	810	784	630	2054	
2296	0	812	784	629	2045	
2297	0	809	783	630	2036	
2298	0	809	784	629	2020	
2299	0	810	784	629	2007	
2300	0	809	784	629	1999	
2301	0	808	783	629	1992	
2302	0	809	783	629	1984	
2303	0	809	784	629	1976	
2304	0	809	785	629	1958	
2305	0	809	784	629	1942	
2306	0	810	784	629	1934	
2307	0	809	784	629	1937	
2308	0	808	785	628	1935	
2309	0	810	785	628	1936	
2310	0	809	784	628	1946	
2311	0	809	784	629	1967	
2312	0	808	784	629	1994	
2313	0	808	784	629	2019	
2314	0	809	785	629	2037	
2315	0	809	784	630	2047	
2316	0	808	783	629	2051	
2317	0	808	783	630	2055	
2318	0	808	784	629	2060	
2319	0	809	785	629	2070	
2320	0	808	784	629	2079	
2321	0	809	784	629	2080	
2322	0	809	782	630	2079	
2323	0	809	785	630	2068	
2324	0	809	785	629	2055	
2325	0	809	785	629	2039	
2326	0	808	784	629	2021	
2327	0	809	783	629	2006	
2328	0	809	783	631	1999	
2329	0	809	784	630	1998	
2330	0	809	783	630	2000	
2331	0	809	784	630	2003	
2332	0	809	783	630	2013	
2333	0	810	784	631	2020	
2334	0	810	785	630	2024	
2335	0	809	785	630	2018	
2336	0	809	784	630	2010	
2337	0	809	784	630	2005	
2338	0	810	784	631	1999	
2339	0	809	786	629	1979	
2340	0	809	785	629	1958	
2341	0	809	784	629	1949	
2342	0	809	784	630	1952	
2343	0	809	785	631	1965	
2344	0	810	786	629	1984	
2345	0	810	784	630	2002	
2346	0	810	784	630	2019	
2347	0	809	784	630	2038	
2348	0	809	785	631	2060	
2349	0	809	785	629	2079	
2350	0	810	785	630	2098	
2351	0	808	784	629	2108	
2352	0	808	784	630	2120	
2353	0	809	785	630	2129	
2354	0	809	785	630	2132	
2355	0	808	784	630	2125	
2356	0	808	785	631	2119	
2357	0	807	784	630	2105	
2358	0	806	785	630	2094	
2359	0	806	785	629	2086	
2360	0	807	785	630	2081	
2361	0	805	785	629	2072	
2362	0	806	783	630	2067	
2363	0	806	785	629	2058	
2364	0	807	785	630	2052	
2365	0	810	785	631	2048	
2366	0	811	784	630	2042	
2367	0	812	784	630	2040	
2368	0	813	787	630	2031	
2369	0	812	785	629	2025	
2370	0	813	786	630	2024	
2371	0	811	785	628	2022	
2372	0	811	783	629	2029	
2373	0	810	786	628	2030	
2374	0	810	786	629	2030	
2375	0	809	785	629	2024	
2376	0	810	786	630	2015	
2377	0	809	785	629	2002	
2378	0	809	784	630	1998	
2379	0	809	786	630	1998	
2380	0	808	785	630	1996	
2381	0	810	786	631	2003	
2382	0	808	784	630	2008	
2383	0	808	785	629	2011	
2384	0	809	786	629	2011	
2385	0	808	786	629	2004	
2386	0	812	785	629	1998	
2387	0	809	783	630	1995	
2388	0	810	785	632	1993	
2389	0	810	785	629	1994	
2390	0	810	785	629	1994	
2391	0	812	784	629	1991	
2392	0	809	784	630	1992	
2393	0	810	784	629	1988	
2394	0	810	786	630	1995	
2395	0	810	784	629	2016	
2396	0	809	785	629	2039	
2397	0	809	784	628	2064	
2398	0	808	786	629	2080	
2399	0	810	786	629	2084	
2400	0	809	786	629	2082	
2401	0	809	785	629	2067	
2402	0	809	784	629	2049	
2403	0	808	785	629	2032	
2404	0	809	786	629	2022	
2405	0	808	785	629	2020	
2406	0	808	784	629	2004	
2407	0	809	784	630	1975	
2408	0	808	785	630	1951	
2409	0	809	786	630	1943	
2410	0	809	785	630	1955	
2411	0	810	785	629	1975	
2412	0	810	785	629	1995	
2413	0	810	786	629	2009	
2414	0	811	786	629	2018	
2415	0	810	784	629	2026	
2416	0	810	785	629	2028	
2417	0	811	784	630	2031	
2418	0	812	786	630	2029	
2419	0	811	786	629	2032	
2420	0	811	785	629	2038	
2421	0	812	785	629	2037	
2422	0	811	785	629	2030	
2423	0	811	786	629	2016	
2424	0	812	787	629	1998	
2425	0	811	785	629	1981	
2426	0	811	785	629	1965	
2427	0	811	785	629	1953	
2428	0	810	786	629	1946	
2429	0	810	786	629	1938	
2430	0	810	786	629	1936	
2431	0	810	786	629	1936	
2432	0	810	786	629	1939	
2433	0	810	787	629	1947	
2434	0	811	787	629	1961	
2435	0	811	787	629	1982	
2436	0	811	786	629	2006	
2437	0	811	786	629	2029	
2438	0	810	787	629	2050	
2439	0	811	788	629	2064	
2440	0	811	785	630	2081	
2441	0	811	786	629	2098	
2442	0	812	785	630	2120	
2443	0	812	786	632	2133	
2444	0	811	786	629	2143	
2445	0	811	786	629	2147	
2446	0	812	787	629	2146	
2447	0	809	786	629	2136	
2448	0	810	786	628	2125	
2449	0	810	787	629	2115	
2450	0	810	786	629	2101	
2451	0	811	787	629	2097	
2452	0	812	786	628	2084	
2453	0	811	786	628	2064	
2454	0	811	786	628	2047	
2455	0	812	787	629	2036	
2456	0	811	786	628	2020	
2457	0	810	786	629	2011	
2458	0	811	787	632	1999	
2459	0	810	786	628	1989	
2460	0	811	786	629	1983	
2461	0	810	785	629	1972	
2462	0	810	785	629	1959	
2463	0	810	785	629	1950	
2464	0	812	786	629	1948	
2465	0	811	785	629	1953	
2466	0	813	786	629	1972	
2467	0	812	786	628	1988	
2468	0	812	786	628	2011	
2469	0	812	787	628	2035	
2470	0	813	785	628	2055	
2471	0	813	787	629	2076	
2472	0	811	787	628	2091	
2473	0	812	787	627	2103	
2474	0	812	787	628	2113	
2475	0	811	786	627	2115	
2476	0	812	787	628	2114	
2477	0	811	785	627	2107	
2478	0	812	786	627	2099	
2479	0	812	786	626	2092	
2480	0	812	786	628	2083	
2481	0	812	786	627	2047	
2482	0	812	786	628	2001	
2483	0	813	787	630	1962	
2484	0	812	787	627	1945	
2485	0	812	788	628	1944	
2486	0	811	787	628	1945	
2487	0	811	787	628	1951	
2488	0	810	787	628	1961	
2489	0	811	788	628	1976	
2490	0	811	786	629	1994	
2491	0	811	787	628	2013	
2492	0	811	786	628	2034	
2493	0	811	786	628	2053	
2494	0	811	787	628	2072	
2495	0	811	785	628	2090	
2496	0	811	785	628	2102	
2497	0	810	786	628	2103	
2498	0	810	786	628	2094	
2499	0	810	786	628	2085	
2500	0	810	785	629	2077	
2501	0	811	786	628	2071	
2502	0	810	786	628	2065	
2503	0	810	786	628	2056	
2504	0	811	787	629	2050	
2505	0	811	785	629	2048	
2506	0	811	786	628	2049	
2507	0	811	786	628	2049	
2508	0	810	786	628	2043	
2509	0	810	787	628	2027	
2510	0	810	785	629	2015	
2511	0	810	786	628	2005	
2512	0	811	786	628	2006	
2513	0	811	785	627	2009	
2514	0	811	786	628	2010	
2515	0	811	786	629	2002	
2516	0	810	785	628	1983	
2517	0	810	785	629	1973	
2518	0	811	786	631	1968	
2519	0	811	786	628	1968	
2520	0	810	786	629	1967	
2521	0	809	786	628	1963	
2522	0	810	786	628	1966	
2523	0	809	786	628	1979	
2524	0	810	785	629	1994	
2525	0	810	784	630	2007	
2526	0	810	785	629	2012	
2527	0	811	785	629	2015	
2528	0	811	785	629	2018	
2529	0	811	785	629	2021	
2530	0	810	785	630	2027	
2531	0	810	784	629	2032	
2532	0	811	785	629	2044	
2533	0	811	785	629	2059	
2534	0	811	785	629	2074	
2535	0	811	784	629	2086	
2536	0	812	785	629	2088	
2537	0	812	784	629	2088	
2538	0	812	785	629	2090	
2539	0	811	785	629	2089	
2540	0	811	784	630	2087	
2541	0	811	784	629	2083	
2542	0	810	785	629	2083	
2543	0	810	784	629	2085	
2544	0	811	785	629	2088	
2545	0	811	785	630	2089	
2546	0	811	784	629	2085	
2547	0	811	784	629	2084	
2548	0	812	784	629	2082	
2549	0	811	786	630	2068	
2550	0	811	784	629	2054	
2551	0	811	785	630	2048	
2552	0	810	784	629	2043	
2553	0	812	783	629	2041	
2554	0	811	784	630	2037	
2555	0	811	783	629	2027	
2556	0	812	785	630	2023	
2557	0	810	784	629	2016	
2558	0	811	784	629	2016	
2559	0	812	784	630	2027	
2560	0	811	783	629	2038	
2561	0	812	784	630	2049	
2562	0	812	785	630	2057	
2563	0	812	784	629	2058	
2564	0	812	784	629	2049	
2565	0	810	783	628	2023	
2566	0	811	784	629	1990	
2567	0	811	784	629	1973	
2568	0	812	784	629	1976	
2569	0	812	784	629	1988	
2570	0	812	783	629	2005	
2571	0	812	784	629	2020	
2572	0	811	783	629	2038	
2573	0	812	784	630	2051	
2574	0	812	784	630	2064	
2575	0	812	784	629	2076	
2576	0	812	784	629	2085	
2577	0	811	783	629	2091	
2578	0	811	783	629	2097	
2579	0	811	783	629	2101	
2580	0	811	782	629	2099	
2581	0	811	783	629	2094	
2582	0	811	783	630	2090	
2583	0	810	783	630	2089	
2584	0	811	783	630	2088	
2585	0	812	783	630	2084	
2586	0	812	783	630	2076	
2587	0	811	783	630	2069	
2588	0	811	783	630	2065	
2589	0	811	783	631	2066	
2590	0	811	783	631	2060	
2591	0	810	783	630	2055	
2592	0	809	783	630	2051	
2593	0	811	784	631	2036	
2594	0	811	784	630	2023	
2595	0	811	784	630	2010	
2596	0	811	783	629	1996	
2597	0	811	783	630	1993	
2598	0	811	783	629	1995	
2599	0	812	783	630	1991	
2600	0	811	783	629	1977	
2601	0	811	783	630	1959	
2602	0	810	783	629	1948	
2603	0	810	784	629	1948	
2604	0	810	784	629	1955	
2605	0	810	783	629	1967	
2606	0	810	784	629	1979	
2607	0	811	784	629	1989	
2608	0	811	784	629	1997	
2609	0	811	784	630	1998	
2610	0	811	784	629	1998	
2611	0	811	784	629	2002	
2612	0	809	785	629	2018	
2613	0	810	785	629	2042	
2614	0	810	785	630	2065	
2615	0	810	784	629	2085	
2616	0	811	785	629	2098	
2617	0	810	785	630	2109	
2618	0	811	786	629	2114	
2619	0	811	786	632	2116	
2620	0	812	786	630	2119	
2621	0	811	785	629	2115	
2622	0	811	786	629	2109	
2623	0	811	786	629	2095	
2624	0	812	786	630	2077	
2625	0	811	785	629	2060	
2626	0	813	786	630	2059	
2627	0	811	786	630	2062	
2628	0	812	785	630	2071	
2629	0	812	785	630	2078	
2630	0	811	784	629	2079	
2631	0	813	786	630	2080	
2632	0	811	786	629	2075	
2633	0	811	785	630	2070	
2634	0	812	785	630	2070	
2635	0	811	784	629	2068	
2636	0	812	786	629	2071	
2637	0	810	785	629	2071	
2638	0	812	786	629	2073	
2639	0	811	785	630	2077	
2640	0	810	784	629	2078	
2641	0	811	785	630	2081	
2642	0	809	786	629	2078	
2643	0	810	785	630	2077	
2644	0	812	785	630	2072	
2645	0	812	783	629	2062	
2646	0	811	784	630	2054	
2647	0	812	784	630	2055	
2648	0	812	785	631	2053	
2649	0	812	785	630	2053	
2650	0	812	785	630	2054	
2651	0	811	784	630	2049	
2652	0	812	784	630	2036	
2653	0	812	784	630	2001	
2654	0	812	784	631	1977	
2655	0	812	784	630	1973	
2656	0	810	783	630	1980	
2657	0	811	784	629	1996	
2658	0	811	785	630	2011	
2659	0	811	785	630	2017	
2660	0	811	784	629	2011	
2661	0	812	785	631	2006	
2662	0	809	785	630	2005	
2663	0	810	784	630	2013	
2664	0	811	785	631	2025	
2665	0	811	784	629	2032	
2666	0	810	784	629	2036	
2667	0	811	784	630	2045	
2668	0	812	784	630	2047	
2669	0	812	784	632	2050	
2670	0	812	784	631	2054	
2671	0	812	784	631	2053	
2672	0	812	784	631	2057	
2673	0	812	785	631	2056	
2674	0	811	784	631	2057	
2675	0	812	784	631	2057	
2676	0	811	783	630	2046	
2677	0	811	784	631	2033	
2678	0	812	785	631	2006	
2679	0	811	784	632	1984	
2680	0	811	785	631	1970	
2681	0	811	785	630	1960	
2682	0	811	784	630	1960	
2683	0	811	784	631	1970	
2684	0	813	785	631	1986	
2685	0	812	783	630	1994	
2686	0	813	785	631	2003	
2687	0	812	784	631	2015	
2688	0	811	784	631	2040	
2689	0	812	785	632	2071	
2690	0	812	784	630	2101	
2691	0	811	784	630	2124	
2692	0	812	784	630	2142	
2693	0	812	784	630	2149	
2694	0	812	784	630	2143	
2695	0	813	784	630	2132	
2696	0	813	783	630	2118	
2697	0	813	783	630	2107	
2698	0	813	783	630	2097	
2699	0	813	784	629	2084	
2700	0	813	783	629	2070	
2701	0	812	783	630	2050	
2702	0	812	783	630	2033	
2703	0	811	784	630	2017	
2704	0	812	784	630	2003	
2705	0	811	783	629	1992	
2706	0	812	784	630	1982	
2707	0	812	783	630	1979	
2708	0	811	783	630	1982	
2709	0	812	784	629	1995	
2710	0	812	784	629	2014	
2711	0	812	784	629	2035	
2712	0	812	783	629	2054	
2713	0	812	784	629	2065	
2714	0	812	784	630	2072	
2715	0	812	785	631	2077	
2716	0	813	784	629	2078	
2717	0	813	784	629	2082	
2718	0	812	784	629	2083	
2719	0	813	785	629	2077	
2720	0	811	784	629	2055	
2721	0	812	784	629	2018	
2722	0	812	784	629	1980	
2723	0	811	784	629	1964	
2724	0	813	785	629	1971	
2725	0	812	784	627	1986	
2726	0	812	784	629	2005	
2727	0	811	785	629	2023	
2728	0	813	785	629	2034	
2729	0	812	785	629	2045	
2730	0	812	785	629	2055	
2731	0	812	784	629	2057	
2732	0	812	784	629	2060	
2733	0	813	785	630	2057	
2734	0	813	784	630	2060	
2735	0	814	785	629	2062	
2736	0	813	784	628	2058	
2737	0	813	784	628	2058	
2738	0	813	783	628	2056	
2739	0	813	784	629	2053	
2740	0	814	785	629	2038	
2741	0	814	785	629	2009	
2742	0	813	784	629	1995	
2743	0	814	785	630	1990	
2744	0	814	785	631	2000	
2745	0	813	784	628	2013	
2746	0	813	785	630	2020	
2747	0	813	784	630	2019	
2748	0	812	785	630	2017	
2749	0	812	785	630	2022	
2750	0	812	785	629	2035	
2751	0	813	785	629	2049	
2752	0	813	784	629	2065	
2753	0	813	783	629	2076	
2754	0	814	785	629	2085	
2755	0	814	784	628	2093	
2756	0	813	785	629	2094	
2757	0	812	784	629	2091	
2758	0	813	784	629	2081	
2759	0	814	785	630	2063	
2760	0	814	784	629	2039	
2761	0	813	784	629	2017	
2762	0	812	784	629	2001	
2763	0	812	783	628	1993	
2764	0	813	784	629	1992	
2765	0	813	784	628	2000	
2766	0	813	784	628	2013	
2767	0	812	784	629	2029	
2768	0	812	784	628	2044	
2769	0	814	784	629	2061	
2770	0	813	784	628	2080	
2771	0	813	784	629	2092	
2772	0	813	784	629	2097	
2773	0	813	783	628	2099	
2774	0	813	784	629	2102	
2775	0	813	784	629	2106	
2776	0	812	784	628	2100	
2777	0	812	784	628	2091	
2778	0	811	784	628	2077	
2779	0	813	785	628	2058	
2780	0	812	784	628	2036	
2781	0	813	785	628	2017	
2782	0	816	785	627	2002	
2783	0	812	784	627	1997	
2784	0	813	785	629	2002	
2785	0	813	785	628	2012	
2786	0	812	784	627	2018	
2787	0	813	784	628	2026	
2788	0	814	785	628	2031	
2789	0	813	785	629	2039	
2790	0	814	785	629	2054	
2791	0	813	784	628	2064	
2792	0	814	784	628	2077	
2793	0	814	784	628	2086	
2794	0	815	784	629	2087	
2795	0	814	785	628	2085	
2796	0	814	784	628	2078	
2797	0	813	784	628	2079	
2798	0	813	783	627	2080	
2799	0	814	785	629	2084	
2800	0	813	784	628	2087	
2801	0	813	784	628	2081	
2802	0	813	785	628	2078	
2803	0	813	785	629	2075	
2804	0	814	786	629	2074	
2805	0	813	785	628	2075	
2806	0	813	785	628	2074	
2807	0	814	786	628	2073	
2808	0	813	785	628	2066	
2809	0	814	786	629	2042	
2810	0	813	784	629	2020	
2811	0	814	784	629	2014	
2812	0	814	784	629	2024	
2813	0	813	784	630	2041	
2814	0	813	785	629	2055	
2815	0	813	784	628	2065	
2816	0	814	785	630	2074	
2817	0	815	784	629	2078	
2818	0	813	784	629	2081	
2819	0	813	785	630	2079	
2820	0	813	785	630	2076	
2821	0	812	784	629	2067	
2822	0	813	785	628	2059	
2823	0	814	785	629	2047	
2824	0	813	785	630	2036	
2825	0	812	785	629	2033	
2826	0	812	784	629	2025	
2827	0	813	785	628	2022	
2828	0	814	785	629	2018	
2829	0	812	785	630	2020	
2830	0	813	785	629	2030	
2831	0	812	785	628	2034	
2832	0	813	785	628	2042	
2833	0	812	784	629	2042	
2834	0	813	785	629	2030	
2835	0	813	784	629	2017	
2836	0	812	785	628	2011	
2837	0	812	784	629	2013	
2838	0	812	784	629	2020	
2839	0	813	785	629	2033	
2840	0	813	784	629	2051	
2841	0	814	784	629	2066	
2842	0	813	785	629	2078	
2843	0	813	784	630	2086	
2844	0	814	785	629	2096	
2845	0	813	785	630	2109	
2846	0	813	784	630	2126	
2847	0	812	784	629	2146	
2848	0	812	784	629	2163	
2849	0	812	785	630	2180	
2850	0	812	785	630	2198	
2851	0	812	785	630	2200	
2852	0	812	784	630	2192	
2853	0	811	783	631	2182	
2854	0	812	785	630	2172	
2855	0	811	784	630	2162	
2856	0	811	784	629	2144	
2857	0	813	784	630	2126	
2858	0	812	784	630	2111	
2859	0	813	785	630	2097	
2860	0	812	784	629	2089	
2861	0	813	785	629	2082	
2862	0	815	784	629	2073	
2863	0	812	784	630	2071	
2864	0	813	785	630	2076	
2865	0	812	785	630	2085	
2866	0	812	785	629	2091	
2867	0	812	785	628	2102	
2868	0	813	785	630	2110	
2869	0	812	785	630	2114	
2870	0	812	786	630	2126	
2871	0	811	785	629	2128	
2872	0	811	786	628	2131	
2873	0	812	785	630	2126	
2874	0	812	784	629	2117	
2875	0	812	785	630	2103	
2876	0	812	785	628	2081	
2877	0	812	785	627	2062	
2878	0	811	785	630	2039	
2879	0	812	785	629	2016	
2880	0	812	785	629	1999	
2881	0	813	787	629	1986	
2882	0	812	784	629	1977	
2883	0	813	784	630	1976	
2884	0	814	785	631	1982	
2885	0	813	784	629	1985	
2886	0	813	784	629	1977	
2887	0	813	784	629	1976	
2888	0	813	784	629	1989	
2889	0	814	785	628	2013	
2890	0	814	784	629	2036	
2891	0	813	784	628	2048	
2892	0	813	783	628	2050	
2893	0	813	783	629	2044	
2894	0	814	784	630	2035	
2895	0	812	784	629	2029	
2896	0	812	783	629	2025	
2897	0	812	783	629	2029	
2898	0	812	783	629	2038	
2899	0	812	784	629	2048	
2900	0	810	784	629	2062	
2901	0	811	784	629	2073	
2902	0	810	783	629	2080	
2903	0	809	783	629	2082	
2904	0	810	784	630	2082	
2905	0	809	784	629	2079	
2906	0	811	785	630	2073	
2907	0	811	783	629	2053	
2908	0	810	784	630	2024	
2909	0	810	784	629	1998	
2910	0	810	785	630	1986	
2911	0	809	784	629	1984	
2912	0	810	783	628	1997	
2913	0	811	784	630	2008	
2914	0	812	784	631	2025	
2915	0	812	784	629	2047	
2916	0	813	785	630	2066	
2917	0	815	784	629	2078	
2918	0	813	784	629	2087	
2919	0	812	784	630	2099	
2920	0	811	784	629	2110	
2921	0	813	786	630	2123	
2922	0	815	784	629	2124	
2923	0	812	785	630	2124	
2924	0	813	785	630	2122	
2925	0	813	785	630	2115	
2926	0	813	784	629	2107	
2927	0	813	784	629	2100	
2928	0	814	785	630	2092	
2929	0	813	784	630	2079	
2930	0	812	784	630	2073	
2931	0	813	785	631	2068	
2932	0	813	784	630	2060	
2933	0	812	784	630	2055	
2934	0	810	785	630	2047	
2935	0	811	785	629	2034	
2936	0	811	786	630	2020	
2937	0	810	784	629	2011	
2938	0	809	784	631	2003	
2939	0	810	784	631	2002	
2940	0	810	784	631	2007	
2941	0	810	784	630	2012	
2942	0	810	784	631	2010	
2943	0	810	784	631	2005	
2944	0	810	784	633	1998	
2945	0	810	784	630	1992	
2946	0	810	784	630	1992	
2947	0	810	784	631	1996	
2948	0	810	784	632	2004	
2949	0	810	784	632	2015	
2950	0	810	784	631	2025	
2951	0	810	784	630	2024	
2952	0	809	783	630	2020	
2953	0	809	784	631	2017	
2954	0	810	784	631	2018	
2955	0	809	783	630	2024	
2956	0	809	783	631	2028	
2957	0	810	783	630	2031	
2958	0	810	783	631	2021	
2959	0	810	784	631	2003	
2960	0	810	784	629	1990	
2961	0	811	783	629	1985	
2962	0	811	783	629	1992	
2963	0	811	784	630	1998	
2964	0	810	784	629	2006	
2965	0	811	784	630	2008	
2966	0	810	783	629	1988	
2967	0	809	783	629	1971	
2968	0	810	783	630	1968	
2969	0	809	784	631	1984	
2970	0	810	783	629	2010	
2971	0	811	784	630	2034	
2972	0	813	783	630	2051	
2973	0	811	783	630	2065	
2974	0	812	783	630	2081	
2975	0	811	783	630	2097	
2976	0	812	783	629	2111	
2977	0	812	783	629	2122	
2978	0	812	784	630	2126	
2979	0	811	783	630	2124	
2980	0	813	783	631	2129	
2981	0	812	783	630	2130	
2982	0	812	783	628	2129	
2983	0	812	783	630	2118	
2984	0	811	783	630	2100	
2985	0	811	784	630	2090	
2986	0	811	783	630	2074	
2987	0	812	783	628	2065	
2988	0	813	784	630	2053	
2989	0	812	784	629	2043	
2990	0	812	784	630	2038	
2991	0	812	783	629	2032	
2992	0	812	783	627	2032	
2993	0	813	785	630	2030	
2994	0	812	784	629	2029	
2995	0	813	785	630	2032	
2996	0	812	784	629	2031	
2997	0	812	783	628	2033	
2998	0	813	783	630	2029	
2999	0	812	784	630	2027	
3000	0	813	784	630	2026	
3001	0	813	785	630	2029	
3002	0	812	784	630	2032	
3003	0	812	784	630	2031	
3004	0	812	784	630	2033	
3005	0	812	784	628	2039	
3006	0	812	784	629	2043	
3007	0	811	784	629	2045	
3008	0	812	784	630	2048	
3009	0	811	785	629	2055	
3010	0	811	784	629	2063	
3011	0	810	784	629	2062	
3012	0	812	784	629	2056	
3013	0	812	784	630	2048	
3014	0	811	784	630	2047	
3015	0	811	784	630	2054	
3016	0	812	784	629	2060	
3017	0	813	784	629	2067	
3018	0	813	784	630	2072	
3019	0	812	784	630	2073	
3020	0	812	784	629	2071	
3021	0	812	785	629	2065	
3022	0	812	784	629	2059	
3023	0	812	784	630	2052	
3024	0	812	785	630	2042	
3025	0	812	784	630	2033	
3026	0	814	785	630	2027	
3027	0	813	783	630	2014	
3028	0	811	784	630	2003	
3029	0	812	784	630	1996	
3030	0	812	784	629	1997	
3031	0	812	785	629	2001	
3032	0	812	786	628	2009	
3033	0	811	785	628	2017	
3034	0	812	785	629	2022	
3035	0	812	784	629	2030	
3036	0	812	785	629	2033	
3037	0	813	785	629	2036	
3038	0	812	784	629	2036	
3039	0	813	785	630	2035	
3040	0	812	784	629	2035	
3041	0	812	784	629	2037	
3042	0	812	785	628	2044	
3043	0	810	785	629	2054	
3044	0	812	784	630	2060	
3045	0	812	784	629	2066	
3046	0	813	784	628	2063	
3047	0	813	785	628	2053	
3048	0	811	785	628	2030	
3049	0	811	785	629	2003	
3050	0	811	784	628	1993	
3051	0	812	784	629	2005	
3052	0	811	783	629	2027	
3053	0	809	784	628	2054	
3054	0	810	784	628	2075	
3055	0	812	785	628	2095	
3056	0	811	784	628	2106	
3057	0	812	784	628	2115	
3058	0	813	785	629	2115	
3059	0	811	784	628	2116	
3060	0	813	785	629	2121	
3061	0	812	784	627	2119	
3062	0	812	784	628	2115	
3063	0	811	784	628	2107	
3064	0	811	784	628	2093	
3065	0	812	784	628	2080	
3066	0	811	784	627	2061	
3067	0	812	784	627	2038	
3068	0	813	784	628	2013	
3069	0	812	784	627	1996	
3070	0	812	785	628	1994	
3071	0	811	784	627	1994	
3072	0	812	784	628	2004	
3073	0	813	785	628	2012	
3074	0	812	784	628	2022	
3075	0	813	784	628	2034	
3076	0	813	784	628	2044	
3077	0	812	784	627	2047	
3078	0	814	783	628	2053	
3079	0	813	784	628	2064	
3080	0	813	784	628	2076	
3081	0	815	783	628	2085	
3082	0	813	785	628	2090	
3083	0	814	785	628	2088	
3084	0	813	784	628	2082	
3085	0	813	785	628	2071	
3086	0	815	783	628	2057	
3087	0	813	784	628	2047	
3088	0	813	784	629	2037	
3089	0	811	785	628	2029	
3090	0	812	784	627	2028	
3091	0	812	785	629	2034	
3092	0	812	783	629	2041	
3093	0	812	784	629	2055	
3094	0	813	785	629	2073	
3095	0	812	784	628	2087	
3096	0	813	785	629	2104	
3097	0	813	783	629	2113	
3098	0	812	785	629	2121	
3099	0	811	784	628	2124	
3100	0	812	784	628	2127	
3101	0	812	785	629	2131	
3102	0	813	783	629	2127	
3103	0	810	784	628	2124	
3104	0	812	783	629	2118	
3105	0	813	783	628	2111	
3106	0	813	785	628	2101	
3107	0	812	784	628	2089	
3108	0	812	784	628	2077	
3109	0	811	784	629	2060	
3110	0	812	784	627	2045	
3111	0	812	784	628	2035	
3112	0	812	784	628	2029	
3113	0	811	784	628	2030	
3114	0	811	784	630	2033	
3115	0	811	783	628	2039	
3116	0	811	783	628	2037	
3117	0	812	784	628	2034	
3118	0	812	784	628	2034	
3119	0	812	784	629	2036	
3120	0	812	784	628	2040	
3121	0	812	783	629	2036	
3122	0	811	783	628	2027	
3123	0	812	783	629	2020	
3124	0	813	784	629	2006	
3125	0	811	783	628	1984	
3126	0	811	784	628	1970	
3127	0	811	784	628	1973	
3128	0	810	783	628	1991	
3129	0	810	784	629	2017	
3130	0	811	784	628	2050	
3131	0	812	784	628	2082	
3132	0	811	784	628	2115	
3133	0	812	784	628	2141	
3134	0	811	784	629	2156	
3135	0	812	784	628	2163	
3136	0	811	783	628	2164	
3137	0	811	783	628	2162	
3138	0	811	784	628	2160	
3139	0	812	784	629	2159	
3140	0	812	784	628	2158	
3141	0	812	784	628	2149	
3142	0	811	784	629	2136	
3143	0	812	784	628	2118	
3144	0	811	784	629	2092	
3145	0	811	784	628	2066	
3146	0	811	784	629	2043	
3147	0	811	784	629	2026	
3148	0	812	783	629	2018	
3149	0	812	784	629	2017	
3150	0	812	784	628	2021	
3151	0	812	784	629	2025	
3152	0	811	784	629	2029	
3153	0	812	785	630	2030	
3154	0	812	785	629	2026	
3155	0	812	784	628	2026	
3156	0	813	785	630	2030	
3157	0	812	786	629	2033	
3158	0	812	784	629	2041	
3159	0	812	785	630	2048	
3160	0	812	784	629	2047	
3161	0	811	784	629	2046	
3162	0	812	784	630	2046	
3163	0	813	785	630	2049	
3164	0	812	784	629	2055	
3165	0	812	784	630	2068	
3166	0	812	784	629	2076	
3167	0	811	784	629	2081	
3168	0	812	785	630	2072	
3169	0	810	784	630	2057	
3170	0	811	785	630	2045	
3171	0	811	784	630	2029	
3172	0	812	784	629	2020	
3173	0	813	785	631	2013	
3174	0	812	784	630	2010	
3175	0	814	784	631	2014	
3176	0	812	784	630	2017	
3177	0	812	784	630	2019	
3178	0	812	785	630	2020	
3179	0	811	784	630	2023	
3180	0	812	785	631	2025	
3181	0	811	784	630	2017	
3182	0	811	784	630	2012	
3183	0	812	785	630	2012	
3184	0	812	784	630	2016	
3185	0	813	785	630	2018	
3186	0	813	784	630	2010	
3187	0	812	784	630	2008	
3188	0	812	785	630	2008	
3189	0	811	784	630	2011	
3190	0	810	784	629	2020	
3191	0	810	785	631	2032	
3192	0	812	785	630	2039	
3193	0	813	784	629	2047	
3194	0	813	785	630	2055	
3195	0	811	785	627	2056	
3196	0	813	786	630	2059	
3197	0	813	786	630	2055	
3198	0	813	783	630	2056	
3199	0	812	785	630	2063	
3200	0	812	784	629	2066	
3201	0	811	785	628	2064	
3202	0	813	784	629	2056	
3203	0	814	785	630	2037	
3204	0	813	784	629	2002	
3205	0	812	784	627	1960	
3206	0	812	785	627	1918	
3207	0	812	784	629	1889	
3208	0	811	784	628	1859	
3209	0	812	784	629	1835	
3210	0	811	784	628	1829	
3211	0	811	784	629	1845	
3212	0	811	784	629	1885	
3213	0	812	784	629	1939	
3214	0	811	785	629	1995	
3215	0	811	785	628	2045	
3216	0	811	784	629	2085	
3217	0	810	785	628	2114	
3218	0	810	784	629	2130	
3219	0	810	784	629	2140	
3220	0	810	784	629	2148	
3221	0	810	785	629	2150	
3222	0	811	784	629	2150	
3223	0	811	784	630	2145	
3224	0	811	785	630	2137	
3225	0	812	785	628	2126	
3226	0	813	785	629	2114	
3227	0	813	784	629	2103	
3228	0	814	785	629	2091	
3229	0	814	785	629	2078	
3230	0	814	785	628	2067	
3231	0	814	785	628	2060	
3232	0	813	785	628	2058	
3233	0	813	785	629	2054	
3234	0	811	785	629	2051	
3235	0	810	784	628	2049	
3236	0	810	785	629	2050	
3237	0	812	785	630	2047	
3238	0	811	785	631	2048	
3239	0	811	785	629	2049	
3240	0	810	785	628	2042	
3241	0	809	786	629	2035	
3242	0	811	788	629	2020	
3243	0	811	784	629	2012	
3244	0	812	785	630	2010	
3245	0	811	785	628	2010	
3246	0	810	784	629	2014	
3247	0	810	784	629	2018	
3248	0	811	785	629	2020	
3249	0	810	784	629	2021	
3250	0	809	784	628	2021	
3251	0	809	784	629	2016	
3252	0	808	784	629	2012	
3253	0	810	785	630	2010	
3254	0	809	784	630	2013	
3255	0	810	784	629	2021	
3256	0	808	785	630	2033	
3257	0	810	784	629	2039	
3258	0	810	784	629	2035	
3259	0	811	785	630	2029	
3260	0	812	785	629	2024	
3261	0	811	784	629	2023	
3262	0	812	784	629	2025	
3263	0	811	784	630	2022	
3264	0	811	785	630	2019	
3265	0	811	784	629	2015	
3266	0	811	784	629	2014	
3267	0	811	784	629	2012	
3268	0	811	784	628	2012	
3269	0	812	784	629	2014	
3270	0	810	784	628	2018	
3271	0	810	784	629	2024	
3272	0	811	784	629	2035	
3273	0	812	784	629	2048	
3274	0	810	785	629	2061	
3275	0	810	784	628	2068	
3276	0	810	784	629	2070	
3277	0	811	784	629	2071	
3278	0	811	784	629	2072	
3279	0	812	785	629	2070	
3280	0	812	785	629	2056	
3281	0	811	786	630	2040	
3282	0	812	786	631	2024	
3283	0	812	784	630	2012	
3284	0	812	785	630	1988	
3285	0	813	785	630	1967	
3286	0	813	786	631	1951	
3287	0	814	786	631	1954	
3288	0	813	786	630	1966	
3289	0	811	786	630	1986	
3290	0	811	786	630	2008	
3291	0	811	786	630	2026	
3292	0	812	785	630	2043	
3293	0	812	785	630	2054	
3294	0	811	785	630	2062	
3295	0	810	785	630	2068	
3296	0	810	785	630	2067	
3297	0	810	784	629	2065	
3298	0	812	784	629	2062	
3299	0	810	785	630	2059	
3300	0	810	785	629	2052	
3301	0	810	785	629	2042	
3302	0	811	785	629	2029	
3303	0	813	785	629	2012	
3304	0	811	785	629	1999	
3305	0	811	785	629	1997	
3306	0	810	786	630	2007	
3307	0	812	787	631	2020	
3308	0	812	785	629	2034	
3309	0	811	786	629	2043	
3310	0	812	786	630	2050	
3311	0	811	785	629	2053	
3312	0	811	785	629	2060	
3313	0	812	785	629	2067	
3314	0	810	784	628	2076	
3315	0	811	785	629	2086	
3316	0	810	784	628	2083	
3317	0	810	784	628	2078	
3318	0	812	784	629	2072	
3319	0	813	784	628	2065	
3320	0	812	785	629	2064	
3321	0	811	784	629	2063	
3322	0	813	785	629	2070	
3323	0	812	785	629	2080	
3324	0	812	786	629	2091	
3325	0	811	785	629	2093	
3326	0	810	786	629	2096	
3327	0	812	787	629	2091	
3328	0	811	784	629	2085	
3329	0	812	786	629	2080	
3330	0	811	785	628	2075	
3331	0	811	786	629	2078	
3332	0	812	787	629	2074	
3333	0	811	786	629	2068	
3334	0	812	786	629	2061	
3335	0	811	785	628	2048	
3336	0	811	785	629	2035	
3337	0	812	784	628	2023	
3338	0	813	785	628	2015	
3339	0	811	785	629	2010	
3340	0	812	785	629	2012	
3341	0	811	785	629	2016	
3342	0	811	785	629	2022	
3343	0	812	786	628	2032	
3344	0	812	786	629	2042	
3345	0	811	786	629	2047	
3346	0	811	786	629	2051	
3347	0	811	786	629	2048	
3348	0	813	785	628	2036	
3349	0	811	786	629	2022	
3350	0	811	785	629	2018	
3351	0	811	785	629	2018	
3352	0	812	785	629	2019	
3353	0	813	786	629	2025	
3354	0	812	785	630	2021	
3355	0	811	785	629	1997	
3356	0	811	785	629	1974	
3357	0	812	785	630	1968	
3358	0	811	786	630	1980	
3359	0	812	786	630	2002	
3360	0	810	785	629	2015	
3361	0	810	785	630	2024	
3362	0	811	785	630	2031	
3363	0	813	786	630	2036	
3364	0	812	785	630	2030	
3365	0	812	786	630	2025	
3366	0	811	785	630	2016	
3367	0	812	785	630	2008	
3368	0	812	786	630	2005	
3369	0	812	786	629	2000	
3370	0	811	785	629	2004	
3371	0	812	785	628	2017	
3372	0	812	785	629	2041	
3373	0	813	786	629	2071	
3374	0	812	785	629	2098	
3375	0	811	785	629	2118	
3376	0	810	786	630	2129	
3377	0	812	787	629	2128	
3378	0	812	786	629	2128	
3379	0	812	786	629	2124	
3380	0	811	785	628	2109	
3381	0	809	786	629	2092	
3382	0	811	787	629	2059	
3383	0	812	786	629	2028	
3384	0	813	786	629	2011	
3385	0	811	785	628	1997	
3386	0	811	785	628	1993	
3387	0	811	785	629	1997	
3388	0	812	786	629	2000	
3389	0	811	785	629	2003	
3390	0	812	786	629	2004	
3391	0	811	785	629	1997	
3392	0	811	785	629	1991	
3393	0	811	786	630	1992	
3394	0	810	785	629	1996	
3395	0	812	786	630	2003	
3396	0	810	784	629	2007	
3397	0	810	785	629	2015	
3398	0	811	785	630	2023	
3399	0	811	784	630	2030	
3400	0	812	786	630	2043	
3401	0	811	785	629	2057	
3402	0	810	785	630	2078	
3403	0	811	785	629	2098	
3404	0	810	785	629	2117	
3405	0	810	785	629	2123	
3406	0	809	786	632	2126	
3407	0	811	785	630	2123	
3408	0	810	785	628	2124	
3409	0	809	785	630	2126	
3410	0	810	785	629	2125	
3411	0	810	785	629	2119	
3412	0	811	785	629	2106	
3413	0	811	785	629	2089	
3414	0	810	785	630	2074	
3415	0	810	785	629	2060	
3416	0	811	786	629	2053	
3417	0	812	786	629	2049	
3418	0	812	786	628	2050	
3419	0	810	785	629	2052	
3420	0	810	786	629	2055	
3421	0	810	786	630	2058	
3422	0	811	786	629	2061	
3423	0	812	786	629	2061	
3424	0	812	786	629	2058	
3425	0	810	786	629	2051	
3426	0	810	786	629	2043	
3427	0	812	787	629	2037	
3428	0	812	787	628	2038	
3429	0	811	786	629	2043	
3430	0	810	786	629	2038	
3431	0	809	787	630	2033	
3432	0	810	789	629	2025	
3433	0	810	787	630	2024	
3434	0	811	787	630	2029	
3435	0	810	786	629	2035	
3436	0	811	787	630	2042	
3437	0	811	787	629	2051	
3438	0	813	787	629	2055	
3439	0	811	786	629	2059	
3440	0	812	786	629	2058	
3441	0	811	787	629	2056	
3442	0	812	786	629	2047	
3443	0	812	786	629	2029	
3444	0	811	786	629	2018	
3445	0	811	786	629	2022	
3446	0	812	786	629	2035	
3447	0	811	786	629	2048	
3448	0	812	786	629	2053	
3449	0	810	786	630	2050	
3450	0	811	786	629	2042	
3451	0	811	786	630	2029	
3452	0	811	786	630	2011	
3453	0	811	786	629	1993	
3454	0	811	787	630	1984	
3455	0	811	786	629	1987	
3456	0	810	786	629	2004	
3457	0	811	786	629	2023	
3458	0	811	787	629	2029	
3459	0	812	787	629	2033	
3460	0	811	786	629	2034	
3461	0	811	786	629	2036	
3462	0	811	786	630	2038	
3463	0	812	787	630	2035	
3464	0	810	786	629	2023	
3465	0	812	787	630	2014	
3466	0	811	786	629	2004	
3467	0	811	787	628	2003	
3468	0	812	788	630	2012	
3469	0	810	786	629	2020	
3470	0	812	787	629	2030	
3471	0	812	787	630	2037	
3472	0	813	789	629	2036	
3473	0	811	788	629	2037	
3474	0	812	787	630	2034	
3475	0	810	786	629	2029	
3476	0	810	786	628	2031	
3477	0	810	787	628	2042	
3478	0	811	787	629	2058	
3479	0	811	787	629	2067	
3480	0	810	787	630	2072	
3481	0	811	787	630	2078	
3482	0	811	787	630	2089	
3483	0	812	787	629	2099	
3484	0	811	787	630	2103	
3485	0	811	787	629	2101	
3486	0	811	787	629	2090	
3487	0	810	787	629	2080	
3488	0	811	787	628	2072	
3489	0	810	786	629	2065	
3490	0	811	786	629	2058	
3491	0	811	787	629	2056	
3492	0	810	788	629	2057	
3493	0	810	786	629	2061	
3494	0	809	786	630	2065	
3495	0	810	787	629	2072	
3496	0	810	787	629	2078	
3497	0	810	787	629	2082	
3498	0	811	787	628	2085	
3499	0	809	787	629	2088	
3500	0	809	787	629	2088	
3501	0	810	787	628	2087	
3502	0	810	787	628	2088	
3503	0	811	788	629	2081	
3504	0	810	786	629	2043	
3505	0	811	786	629	1997	
3506	0	811	787	630	1974	
3507	0	812	787	629	1971	
3508	0	810	787	629	1987	
3509	0	811	787	630	2011	
3510	0	810	786	629	2028	
3511	0	810	787	630	2045	
3512	0	811	787	629	2055	
3513	0	811	787	629	2067	
3514	0	812	787	629	2081	
3515	0	811	786	629	2089	
3516	0	811	786	629	2092	
3517	0	811	786	629	2093	
3518	0	812	786	630	2094	
3519	0	811	785	629	2094	
3520	0	812	786	629	2094	
3521	0	811	787	630	2099	
3522	0	812	787	629	2095	
3523	0	812	784	630	2088	
3524	0	810	786	629	2074	
3525	0	812	787	630	2059	
3526	0	811	786	630	2040	
3527	0	810	786	629	2028	
3528	0	811	787	630	2020	
3529	0	810	786	630	2014	
3530	0	811	786	629	2012	
3531	0	812	786	630	2025	
3532	0	812	787	629	2038	
3533	0	812	788	629	2052	
3534	0	812	787	629	2062	
3535	0	811	786	629	2058	
3536	0	811	787	629	2052	
3537	0	811	786	628	2043	
3538	0	810	787	629	2031	
3539	0	812	787	629	2011	
3540	0	811	786	629	1979	
3541	0	811	787	629	1958	
3542	0	811	787	629	1945	
3543	0	811	787	629	1942	
3544	0	812	787	629	1947	
3545	0	810	786	629	1955	
3546	0	810	786	629	1971	
3547	0	811	787	629	1989	
3548	0	812	787	630	2003	
3549	0	810	786	629	2012	
3550	0	812	787	630	2021	
3551	0	812	787	629	2025	
3552	0	813	787	629	2034	
3553	0	812	787	629	2044	
3554	0	811	786	629	2049	
3555	0	812	787	630	2054	
3556	0	810	786	629	2054	
3557	0	811	786	631	2058	
3558	0	811	787	629	2068	
3559	0	812	787	630	2081	
3560	0	812	786	629	2085	
3561	0	812	787	630	2089	
3562	0	812	787	629	2086	
3563	0	812	787	629	2079	
3564	0	812	786	630	2067	
3565	0	811	786	629	2050	
3566	0	810	786	629	2037	
3567	0	810	786	629	2025	
3568	0	811	787	629	2008	
3569	0	810	786	630	1983	
3570	0	812	787	630	1969	
3571	0	811	787	629	1966	
3572	0	811	787	630	1974	
3573	0	811	787	629	1990	
3574	0	811	787	630	2012	
3575	0	810	786	629	2025	
3576	0	810	786	629	2042	
3577	0	810	786	630	2058	
3578	0	811	786	630	2060	
3579	0	810	786	630	2048	
3580	0	810	786	629	2035	
3581	0	810	787	630	2032	
3582	0	810	786	631	2038	
3583	0	811	786	630	2048	
3584	0	810	786	630	2055	
3585	0	811	786	630	2055	
3586	0	811	786	630	2054	
3587	0	811	787	630	2056	
3588	0	811	787	629	2065	
3589	0	809	786	629	2076	
3590	0	809	787	629	2086	
3591	0	810	787	629	2095	
3592	0	811	787	631	2103	
3593	0	812	788	630	2108	
3594	0	810	787	629	2108	
3595	0	811	787	629	2104	
3596	0	810	787	629	2102	
3597	0	811	787	630	2101	
3598	0	811	787	629	2100	
3599	0	809	787	629	2099	
3600	0	811	787	630	2098	
3601	0	811	786	629	2092	
3602	0	810	787	629	2089	
3603	0	811	788	629	2086	
3604	0	809	787	629	2078	
3605	0	811	788	630	2074	
3606	0	810	787	629	2065	
3607	0	811	787	629	2060	
3608	0	811	787	630	2053	
3609	0	810	787	629	2043	
3610	0	810	787	629	2035	
3611	0	811	788	630	2030	
3612	0	812	787	628	2019	
3613	0	811	787	629	2008	
3614	0	811	788	629	1996	
3615	0	810	786	629	1981	
3616	0	810	788	629	1973	
3617	0	811	787	630	1973	
3618	0	811	787	630	1985	
3619	0	810	786	629	1999	
3620	0	810	787	630	2008	
3621	0	811	787	629	2011	
3622	0	811	787	630	2013	
3623	0	811	787	629	2013	
3624	0	810	786	629	2021	
3625	0	810	787	629	2023	
3626	0	810	786	629	2020	
3627	0	811	786	629	2012	
3628	0	811	787	629	2011	
3629	0	810	787	629	2020	
3630	0	811	787	629	2032	
3631	0	810	787	629	2045	
3632	0	810	787	628	2052	
3633	0	810	787	628	2061	
3634	0	809	786	629	2064	
3635	0	811	786	629	2055	
3636	0	811	787	629	2043	
3637	0	810	786	629	2034	
3638	0	811	787	629	2030	
3639	0	810	787	630	2031	
3640	0	811	787	629	2031	
3641	0	810	787	629	2040	
3642	0	810	786	629	2053	
3643	0	811	787	629	2073	
3644	0	810	787	629	2089	
3645	0	811	788	629	2106	
3646	0	812	787	629	2118	
3647	0	811	787	629	2127	
3648	0	811	787	629	2129	
3649	0	811	787	629	2133	
3650	0	812	788	630	2131	
3651	0	811	787	629	2111	
3652	0	811	788	629	2070	
3653	0	812	788	630	2038	
3654	0	811	787	629	2024	
3655	0	812	788	629	2032	
3656	0	811	788	629	2045	
3657	0	811	788	628	2061	
3658	0	811	788	630	2074	
3659	0	810	787	629	2081	
3660	0	811	788	630	2088	
3661	0	811	787	629	2088	
3662	0	811	787	629	2088	
3663	0	811	788	630	2088	
3664	0	810	788	629	2085	
3665	0	811	788	630	2086	
3666	0	810	787	629	2084	
3667	0	811	787	628	2079	
3668	0	811	788	630	2069	
3669	0	810	787	630	2052	
3670	0	810	787	630	2038	
3671	0	810	787	631	2031	
3672	0	811	789	629	2023	
3673	0	810	788	630	2022	
3674	0	811	789	630	2024	
3675	0	811	787	630	2023	
3676	0	811	787	630	2027	
3677	0	811	788	628	2023	
3678	0	810	787	629	2019	
3679	0	811	788	630	2020	
3680	0	810	787	629	2025	
3681	0	811	786	630	2043	
3682	0	811	789	628	2061	
3683	0	811	788	629	2080	
3684	0	811	789	630	2095	
3685	0	810	788	630	2103	
3686	0	810	787	629	2108	
3687	0	810	787	629	2113	
3688	0	810	788	630	2121	
3689	0	810	787	629	2130	
3690	0	811	788	629	2139	
3691	0	811	787	629	2144	
3692	0	810	786	628	2152	
3693	0	811	788	630	2159	
3694	0	810	787	629	2161	
3695	0	811	787	629	2165	
3696	0	811	786	630	2171	
3697	0	811	788	629	2165	
3698	0	811	787	628	2149	
3699	0	810	787	629	2132	
3700	0	811	787	630	2118	
3701	0	811	787	630	2102	
3702	0	810	787	630	2091	
3703	0	810	787	629	2086	
3704	0	810	787	629	2086	
3705	0	811	787	629	2089	
3706	0	810	787	629	2095	
3707	0	810	787	629	2097	
3708	0	811	788	629	2095	
3709	0	810	787	629	2086	
3710	0	810	786	629	2081	
3711	0	810	787	628	2081	
3712	0	809	787	629	2080	
3713	0	811	787	629	2071	
3714	0	810	787	629	2058	
3715	0	810	787	629	2047	
3716	0	810	787	629	2045	
3717	0	809	788	628	2048	
3718	0	810	789	628	2051	
3719	0	810	788	629	2053	
3720	0	810	787	629	2053	
3721	0	810	787	629	2052	
3722	0	809	787	629	2052	
3723	0	810	788	629	2058	
3724	0	809	787	629	2065	
3725	0	809	787	629	2068	
3726	0	809	787	630	2071	
3727	0	810	788	629	2069	
3728	0	810	789	629	2065	
3729	0	810	788	629	2056	
3730	0	810	789	630	2041	
3731	0	810	788	629	2023	
3732	0	809	788	629	2011	
3733	0	811	789	629	2008	
3734	0	810	788	629	2015	
3735	0	811	788	629	2024	
3736	0	810	788	629	2037	
3737	0	809	788	629	2048	
3738	0	810	789	629	2061	
3739	0	810	788	629	2064	
3740	0	809	788	629	2047	
3741	0	809	787	629	2018	
3742	0	808	788	630	2001	
3743	0	809	789	629	2003	
3744	0	809	787	629	2018	
3745	0	808	788	629	2031	
3746	0	807	788	629	2039	
3747	0	807	788	629	2044	
3748	0	808	789	629	2045	
3749	0	807	788	630	2046	
3750	0	808	787	630	2047	
3751	0	808	787	629	2049	
3752	0	807	787	629	2052	
3753	0	809	788	629	2059	
3754	0	808	787	630	2067	
3755	0	809	789	630	2071	
3756	0	809	787	629	2072	
3757	0	808	788	629	2072	
3758	0	810	788	629	2063	
3759	0	810	788	630	2052	
3760	0	810	787	629	2044	
3761	0	810	787	630	2047	
3762	0	811	789	629	2046	
3763	0	812	787	629	2045	
3764	0	812	788	629	2045	
3765	0	811	787	629	2038	
3766	0	811	787	629	2033	
3767	0	811	788	629	2027	
3768	0	812	789	629	2022	
3769	0	812	787	629	2015	
3770	0	812	787	628	2005	
3771	0	812	787	629	2000	
3772	0	811	788	628	2001	
3773	0	812	789	629	2007	
3774	0	812	788	630	2018	
3775	0	812	787	629	2025	
3776	0	811	787	629	2036	
3777	0	810	788	629	2044	
3778	0	811	788	629	2052	
3779	0	810	787	629	2059	
3780	0	809	787	629	2068	
3781	0	809	787	629	2081	
3782	0	809	788	629	2095	
3783	0	809	789	629	2099	
3784	0	808	787	629	2099	
3785	0	808	787	629	2091	
3786	0	809	787	629	2081	
3787	0	808	787	629	2071	
3788	0	809	788	629	2060	
3789	0	809	787	629	2054	
3790	0	809	787	629	2047	
3791	0	809	787	629	2043	
3792	0	809	787	630	2037	
3793	0	810	788	630	2036	
3794	0	809	787	629	2036	
3795	0	811	787	629	2037	
3796	0	811	787	629	2037	
3797	0	810	788	629	2035	
3798	0	810	788	630	2029	
3799	0	808	788	630	2013	
3800	0	808	787	629	1996	
3801	0	808	787	629	1980	
3802	0	808	788	629	1966	
3803	0	810	788	629	1953	
3804	0	810	787	630	1951	
3805	0	810	787	629	1958	
3806	0	809	787	629	1973	
3807	0	808	788	629	1989	
3808	0	809	789	629	2002	
3809	0	809	787	629	2018	
3810	0	809	786	629	2031	
3811	0	810	786	629	2041	
3812	0	809	787	629	2040	
3813	0	809	787	629	2038	
3814	0	809	787	629	2032	
3815	0	809	786	629	2010	
3816	0	809	787	628	1993	
3817	0	809	788	629	1994	
3818	0	810	787	629	2017	
3819	0	809	787	629	2048	
3820	0	810	787	628	2075	
3821	0	809	787	629	2090	
3822	0	810	787	629	2096	
3823	0	811	788	630	2100	
3824	0	810	788	629	2095	
3825	0	811	787	629	2083	
3826	0	809	786	630	2074	
3827	0	810	788	632	2062	
3828	0	809	787	629	2053	
3829	0	810	788	630	2043	
3830	0	809	787	630	2036	
3831	0	809	786	630	2040	
3832	0	810	788	631	2041	
3833	0	811	788	630	2047	
3834	0	811	788	630	2055	
3835	0	811	787	629	2062	
3836	0	811	786	630	2076	
3837	0	811	788	632	2086	
3838	0	811	788	629	2096	
3839	0	811	788	630	2102	
3840	0	810	787	629	2099	
3841	0	809	786	630	2094	
3842	0	810	789	631	2082	
3843	0	809	788	629	2071	
3844	0	810	789	630	2064	
3845	0	809	788	629	2054	
3846	0	808	786	629	2052	
3847	0	810	788	631	2048	
3848	0	809	787	629	2047	
3849	0	810	787	630	2042	
3850	0	809	787	629	2019	
3851	0	810	786	629	1991	
3852	0	811	788	632	1965	
3853	0	810	788	629	1954	
3854	0	810	788	629	1957	
3855	0	811	788	629	1962	
3856	0	809	788	629	1964	
3857	0	810	788	629	1971	
3858	0	811	789	630	1990	
3859	0	810	787	629	2010	
3860	0	810	787	629	2032	
3861	0	810	786	629	2050	
3862	0	811	788	632	2056	
3863	0	810	788	629	2062	
3864	0	810	787	629	2067	
3865	0	810	787	629	2068	
3866	0	809	787	629	2069	
3867	0	809	787	629	2069	
3868	0	810	788	629	2071	
3869	0	810	787	629	2071	
3870	0	810	787	629	2074	
3871	0	810	787	628	2079	
3872	0	809	787	629	2082	
3873	0	811	788	628	2082	
3874	0	810	786	629	2084	
3875	0	810	787	629	2086	
3876	0	811	787	629	2091	
3877	0	810	787	628	2093	
3878	0	811	788	629	2090	
3879	0	810	787	629	2084	
3880	0	810	787	629	2067	
3881	0	809	788	628	2046	
3882	0	809	788	628	2023	
3883	0	810	788	628	2008	
3884	0	809	788	628	1999	
3885	0	809	787	629	1989	
3886	0	809	788	629	1983	
3887	0	810	788	632	1969	
3888	0	809	788	629	1948	
3889	0	809	787	629	1927	
3890	0	810	788	629	1919	
3891	0	808	788	628	1928	
3892	0	808	787	629	1955	
3893	0	810	788	630	1991	
3894	0	810	787	629	2026	
3895	0	810	788	630	2062	
3896	0	808	787	629	2080	
3897	0	809	787	628	2081	
3898	0	811	788	629	2078	
3899	0	811	788	629	2088	
3900	0	810	787	629	2102	
3901	0	810	788	629	2125	
3902	0	811	788	632	2141	
3903	0	811	787	629	2151	
3904	0	811	787	630	2155	
3905	0	810	786	629	2145	
3906	0	810	787	630	2131	
3907	0	811	787	631	2113	
3908	0	811	787	629	2100	
3909	0	811	787	629	2090	
3910	0	810	787	628	2080	
3911	0	810	787	629	2079	
3912	0	811	788	631	2077	
3913	0	810	787	628	2080	
3914	0	810	786	629	2083	
3915	0	811	787	629	2086	
3916	0	810	788	628	2082	
3917	0	810	787	628	2081	
3918	0	810	787	629	2080	
3919	0	809	787	628	2077	
3920	0	811	788	629	2075	
3921	0	809	787	628	2069	
3922	0	810	787	628	2065	
3923	0	810	788	629	2061	
3924	0	809	787	629	2053	
3925	0	810	788	629	2050	
3926	0	809	787	628	2044	
3927	0	810	787	628	2031	
3928	0	811	788	629	2018	
3929	0	811	787	628	2005	
3930	0	810	787	629	1997	
3931	0	809	787	629	1995	
3932	0	811	788	631	1991	
3933	0	810	787	628	1995	
3934	0	810	788	628	2008	
3935	0	809	787	628	2017	
3936	0	809	787	628	2024	
3937	0	810	788	631	2018	
3938	0	810	787	629	2017	
3939	0	810	788	629	2024	
3940	0	810	787	628	2033	
3941	0	810	786	628	2047	
3942	0	810	786	628	2060	
3943	0	810	787	629	2071	
3944	0	810	786	628	2078	
3945	0	811	788	629	2090	
3946	0	810	788	627	2094	
3947	0	811	787	628	2096	
3948	0	811	788	629	2099	
3949	0	810	787	629	2104	
3950	0	809	787	628	2108	
3951	0	810	787	629	2109	
3952	0	810	788	631	2100	
3953	0	810	788	629	2093	
3954	0	810	788	629	2082	
3955	0	808	787	628	2069	
3956	0	808	787	629	2070	
3957	0	810	788	631	2070	
3958	0	809	788	628	2072	
3959	0	810	788	629	2075	
3960	0	810	787	628	2074	
3961	0	811	787	629	2073	
3962	0	810	788	629	2064	
3963	0	811	788	629	2050	
3964	0	810	787	630	2031	
3965	0	811	788	630	2019	
3966	0	812	787	629	2010	
3967	0	809	788	629	2009	
3968	0	809	788	629	2021	
3969	0	809	787	628	2040	
3970	0	810	789	629	2060	
3971	0	809	788	628	2072	
3972	0	810	788	628	2080	
3973	0	810	789	629	2086	
3974	0	810	787	629	2086	
3975	0	810	788	629	2090	
3976	0	810	788	629	2099	
3977	0	811	789	631	2096	
3978	0	810	788	629	2095	
3979	0	809	788	629	2095	
3980	0	810	789	629	2097	
3981	0	809	788	629	2098	
3982	0	810	788	629	2106	
3983	0	810	788	629	2114	
3984	0	809	787	629	2124	
3985	0	810	787	629	2129	
3986	0	811	787	629	2131	
3987	0	810	788	629	2129	
3988	0	809	788	628	2111	
3989	0	809	786	629	2081	
3990	0	809	787	629	2063	
3991	0	809	787	629	2065	
3992	0	810	788	629	2079	
3993	0	809	788	627	2091	
3994	0	809	788	628	2098	
3995	0	809	788	628	2096	
3996	0	810	788	629	2091	
3997	0	810	788	629	2078	
3998	0	810	788	627	2065	
3999	0	809	787	628	2051	
4000	0	810	787	629	2039	
4001	0	810	787	629	2028	
4002	0	810	788	629	2022	
4003	0	810	788	628	2011	
4004	0	809	787	629	1999	
4005	0	809	787	629	1988	
4006	0	810	787	629	1984	
4007	0	809	788	629	1980	
4008	0	809	788	628	1967	
4009	0	809	787	628	1957	
4010	0	810	788	630	1958	
4011	0	809	788	629	1963	
4012	0	809	787	630	1973	
4013	0	810	788	629	1986	
4014	0	809	789	630	2004	
4015	0	809	788	629	2021	
4016	0	808	788	629	2040	
4017	0	809	788	629	2053	
4018	0	810	788	629	2055	
4019	0	810	788	630	2058	
4020	0	810	787	629	2051	
4021	0	810	788	630	2043	
4022	0	810	788	628	2035	
4023	0	810	788	629	2035	
4024	0	810	787	628	2040	
4025	0	810	789	629	2048	
4026	0	809	788	629	2057	
4027	0	809	788	629	2070	
4028	0	810	788	629	2081	
4029	0	810	787	628	2078	
4030	0	810	788	629	2071	
4031	0	810	788	630	2063	
4032	0	811	789	629	2047	
4033	0	809	788	631	2033	
4034	0	810	788	630	2019	
4035	0	810	788	629	2000	
4036	0	809	788	630	1993	
4037	0	810	788	631	1991	
4038	0	809	788	629	1994	
4039	0	809	788	630	1998	
4040	0	809	787	630	2001	
4041	0	809	788	630	2013	
4042	0	810	789	631	2016	
4043	0	810	788	630	2016	
4044	0	810	789	630	2015	
4045	0	809	787	629	2012	
4046	0	810	787	629	2017	
4047	0	810	788	629	2025	
4048	0	811	789	630	2034	
4049	0	810	787	628	2036	
4050	0	810	788	629	2038	
4051	0	809	788	629	2032	
4052	0	810	789	629	2028	
4053	0	811	789	629	2026	
4054	0	810	788	628	2024	
4055	0	810	789	629	2025	
4056	0	808	789	629	2026	
4057	0	809	789	629	2032	
4058	0	810	789	630	2041	
4059	0	809	787	629	2044	
4060	0	810	789	629	2043	
4061	0	808	787	629	2034	
4062	0	809	787	629	2032	
4063	0	809	787	629	2034	
4064	0	809	788	630	2036	
4065	0	807	788	629	2031	
4066	0	808	788	629	2027	
4067	0	809	789	630	2020	
4068	0	810	788	629	2017	
4069	0	810	788	628	2014	
4070	0	811	787	629	2006	
4071	0	811	788	629	1994	
4072	0	812	788	629	1972	
4073	0	813	788	629	1962	
4074	0	812	788	628	1970	
4075	0	811	788	629	1983	
4076	0	811	788	628	2002	
4077	0	810	788	629	2018	
4078	0	810	788	628	2035	
4079	0	810	788	628	2055	
4080	0	810	788	628	2068	
4081	0	809	788	629	2076	
4082	0	808	788	628	2076	
4083	0	808	788	629	2074	
4084	0	808	787	628	2072	
4085	0	808	787	629	2070	
4086	0	807	788	629	2067	
4087	0	808	788	628	2059	
4088	0	808	788	628	2049	
4089	0	808	788	628	2039	
4090	0	809	788	628	2024	
4091	0	809	787	628	2012	
4092	0	809	787	629	2008	
4093	0	809	787	629	2014	
4094	0	808	786	629	2026	
4095	0	809	787	630	2037	
4096	0	808	787	629	2044	
4097	0	808	787	629	2054	
4098	0	808	787	631	2061	
4099	0	809	788	630	2062	
4100	0	809	787	629	2056	
4101	0	809	788	630	2055	
4102	0	810	789	630	2048	
4103	0	809	788	630	2037	
4104	0	810	789	630	2023	
4105	0	809	788	629	2003	
4106	0	809	788	629	1985	
4107	0	810	788	629	1979	
4108	0	811	788	630	1985	
4109	0	810	787	628	1994	
4110	0	811	788	630	2003	
4111	0	810	787	630	2009	
4112	0	810	787	629	2011	
4113	0	810	788	628	2020	
4114	0	809	788	628	2030	
4115	0	810	788	629	2035	
4116	0	810	787	629	2038	
4117	0	809	788	629	2040	
4118	0	809	787	629	2044	
4119	0	809	787	629	2050	
4120	0	808	788	629	2050	
4121	0	809	787	629	2043	
4122	0	809	787	629	2030	
4123	0	810	788	628	2011	
4124	0	809	787	629	1992	
4125	0	809	787	630	1976	
4126	0	809	787	629	1974	
4127	0	809	787	630	1980	
4128	0	810	788	629	1994	
4129	0	809	788	629	2008	
4130	0	809	787	630	2019	
4131	0	809	787	630	2032	
4132	0	809	787	630	2044	
4133	0	810	788	629	2050	
4134	0	809	788	629	2054	
4135	0	810	788	630	2055	
4136	0	810	788	631	2061	
4137	0	811	789	631	2060	
4138	0	810	789	629	2056	
4139	0	809	788	630	2041	
4140	0	810	789	631	2022	
4141	0	810	788	630	2008	
4142	0	809	788	630	2011	
4143	0	810	789	630	2021	
4144	0	809	788	629	2030	
4145	0	810	789	630	2033	
4146	0	809	788	630	2026	
4147	0	808	788	629	2022	
4148	0	809	789	630	2022	
4149	0	809	788	630	2023	
4150	0	809	788	629	2027	
4151	0	809	788	630	2038	
4152	0	810	788	630	2045	
4153	0	810	788	630	2056	
4154	0	810	789	630	2068	
4155	0	809	788	630	2075	
4156	0	810	788	630	2084	
4157	0	811	788	630	2081	
4158	0	810	788	631	2076	
4159	0	810	789	630	2071	
4160	0	809	787	629	2062	
4161	0	809	787	629	2060	
4162	0	810	788	629	2051	
4163	0	810	788	629	2038	
4164	0	811	789	629	2032	
4165	0	810	788	629	2029	
4166	0	809	788	629	2030	
4167	0	809	788	629	2033	
4168	0	810	789	630	2038	
4169	0	809	787	629	2035	
4170	0	810	788	630	2016	
4171	0	811	787	629	1981	
4172	0	809	788	630	1958	
4173	0	810	788	631	1955	
4174	0	809	788	629	1968	
4175	0	810	788	629	1984	
4176	0	809	788	630	2000	
4177	0	809	787	629	2012	
4178	0	810	788	631	2021	
4179	0	809	788	629	2029	
4180	0	809	788	630	2033	
4181	0	810	788	630	2037	
4182	0	810	788	630	2036	
4183	0	810	788	630	2035	
4184	0	810	788	629	2039	
4185	0	810	788	629	2043	
4186	0	810	788	629	2048	
4187	0	810	788	629	2049	
4188	0	810	788	630	2047	
4189	0	809	788	630	2044	
4190	0	809	788	630	2042	
4191	0	810	787	629	2043	
4192	0	810	787	629	2045	
4193	0	810	788	630	2049	
4194	0	810	788	630	2052	
4195	0	810	788	629	2047	
4196	0	810	789	629	2039	
4197	0	810	788	629	2030	
4198	0	811	789	630	2030	
4199	0	812	790	630	2041	
4200	0	810	789	629	2054	
4201	0	810	788	629	2064	
4202	0	809	789	629	2067	
4203	0	811	789	630	2068	
4204	0	810	789	629	2063	
4205	0	810	790	630	2062	
4206	0	810	789	629	2057	
4207	0	808	789	629	2055	
4208	0	811	789	630	2056	
4209	0	810	789	628	2051	
4210	0	812	790	630	2044	
4211	0	812	789	629	2037	
4212	0	810	789	629	2046	
4213	0	811	789	630	2061	
4214	0	811	788	630	2074	
4215	0	812	791	630	2083	
4216	0	811	788	631	2089	
4217	0	810	788	630	2085	
4218	0	810	789	631	2078	
4219	0	810	788	630	2069	
4220	0	810	788	630	2058	
4221	0	810	789	629	2049	
4222	0	810	788	629	2042	
4223	0	811	789	630	2034	
4224	0	810	788	629	2028	
4225	0	811	789	629	2018	
4226	0	811	788	629	2006	
4227	0	811	788	630	1997	
4228	0	811	789	630	1991	
4229	0	811	788	629	1987	
4230	0	811	789	629	1983	
4231	0	811	789	629	1979	
4232	0	811	788	629	1975	
4233	0	811	789	630	1971	
4234	0	810	789	630	1973	
4235	0	810	789	629	1972	
4236	0	809	789	630	1980	
4237	0	810	788	630	1994	
4238	0	811	789	630	2013	
4239	0	810	789	630	2034	
4240	0	810	789	630	2051	
4241	0	811	789	629	2070	
4242	0	811	789	631	2077	
4243	0	810	789	630	2078	
4244	0	810	789	630	2074	
4245	0	810	790	630	2069	
4246	0	811	789	629	2073	
4247	0	811	789	629	2081	
4248	0	810	790	629	2082	
4249	0	810	790	629	2074	
4250	0	810	790	629	2054	
4251	0	811	789	629	2036	
4252	0	810	789	630	2020	
4253	0	811	789	630	2011	
4254	0	811	790	629	2009	
4255	0	811	789	630	2012	
4256	0	811	789	630	2019	
4257	0	810	789	629	2027	
4258	0	810	790	630	2034	
4259	0	811	789	630	2033	
4260	0	810	790	629	2028	
4261	0	810	789	630	2029	
4262	0	810	788	631	2035	
4263	0	810	789	630	2041	
4264	0	809	789	630	2046	
4265	0	810	789	630	2045	
4266	0	810	790	629	2047	
4267	0	810	790	630	2044	
4268	0	810	789	631	2038	
4269	0	810	789	630	2034	
4270	0	811	790	631	2033	
4271	0	813	789	630	2029	
4272	0	811	789	630	2033	
4273	0	812	789	630	2048	
4274	0	811	789	630	2065	
4275	0	812	790	631	2081	
4276	0	812	789	629	2071	
4277	0	809	789	629	2056	
4278	0	811	790	630	2052	
4279	0	810	789	630	2058	
4280	0	811	789	630	2073	
4281	0	812	789	630	2084	
4282	0	809	788	631	2093	
4283	0	810	789	631	2090	
4284	0	810	790	630	2081	
4285	0	810	789	629	2066	
4286	0	809	789	628	2058	
4287	0	810	790	630	2045	
4288	0	810	790	630	2037	
4289	0	811	790	630	2033	
4290	0	809	789	629	2030	
4291	0	810	790	628	2034	
4292	0	811	790	630	2036	
4293	0	811	789	631	2035	
4294	0	810	789	629	2035	
4295	0	811	790	630	2034	
4296	0	811	790	630	2031	
4297	0	810	789	629	2030	
4298	0	810	790	630	2030	
4299	0	810	789	629	2021	
4300	0	811	790	629	2012	
4301	0	811	789	629	2010	
4302	0	811	789	630	2010	
4303	0	810	789	631	2011	
4304	0	810	789	629	2016	
4305	0	810	789	630	2022	
4306	0	811	789	629	2034	
4307	0	810	789	630	2045	
4308	0	810	790	629	2052	
4309	0	810	789	630	2060	
4310	0	811	790	629	2065	
4311	0	810	790	629	2068	
4312	0	811	789	630	2072	
4313	0	812	790	632	2077	
4314	0	810	789	630	2082	
4315	0	810	789	630	2082	
4316	0	810	789	630	2083	
4317	0	810	788	630	2081	
4318	0	810	789	630	2079	
4319	0	811	789	629	2073	
4320	0	810	789	629	2060	
4321	0	810	789	629	2049	
4322	0	812	789	630	2042	
4323	0	811	790	630	2041	
4324	0	810	789	630	2042	
4325	0	811	790	629	2042	
4326	0	810	789	629	2041	
4327	0	811	790	630	2032	
4328	0	810	789	630	2026	
4329	0	811	790	630	2027	
4330	0	810	789	630	2028	
4331	0	810	789	629	2036	
4332	0	811	790	631	2039	
4333	0	810	789	630	2035	
4334	0	811	790	630	2034	
4335	0	810	789	630	2030	
4336	0	811	789	628	2032	
4337	0	811	790	630	2034	
4338	0	812	790	630	2035	
4339	0	812	790	630	2040	
4340	0	811	790	629	2040	
4341	0	811	789	628	2041	
4342	0	813	790	630	2040	
4343	0	811	790	629	2039	
4344	0	812	790	630	2038	
4345	0	811	789	629	2038	
4346	0	810	789	629	2046	
4347	0	812	789	629	2056	
4348	0	812	790	630	2064	
4349	0	811	789	629	2064	
4350	0	812	790	630	2060	
4351	0	813	788	629	2045	
4352	0	812	789	629	2026	
4353	0	812	789	630	2013	
4354	0	811	789	629	1998	
4355	0	810	789	629	1961	
4356	0	810	788	628	1914	
4357	0	811	789	630	1880	
4358	0	811	789	629	1873	
4359	0	812	790	630	1895	
4360	0	812	789	629	1929	
4361	0	812	789	628	1973	
4362	0	812	790	630	2013	
4363	0	811	789	630	2043	
4364	0	812	790	630	2079	
4365	0	812	789	629	2111	
4366	0	812	790	629	2140	
4367	0	812	789	629	2158	
4368	0	813	790	630	2160	
4369	0	812	789	629	2145	
4370	0	812	790	629	2127	
4371	0	812	789	629	2103	
4372	0	811	789	629	2084	
4373	0	812	790	630	2071	
4374	0	811	789	629	2060	
4375	0	812	790	629	2057	
4376	0	810	789	629	2054	
4377	0	811	789	628	2052	
4378	0	812	789	630	2054	
4379	0	811	789	629	2052	
4380	0	812	789	630	2054	
4381	0	813	788	628	2050	
4382	0	812	789	629	2052	
4383	0	812	790	629	2058	
4384	0	811	789	629	2066	
4385	0	812	791	628	2072	
4386	0	812	789	627	2082	
4387	0	812	790	629	2089	
4388	0	811	789	629	2083	
4389	0	811	789	629	2073	
4390	0	811	791	628	2061	
4391	0	811	790	628	2062	
4392	0	810	790	629	2067	
4393	0	812	790	630	2076	
4394	0	812	789	629	2079	
4395	0	812	790	629	2075	
4396	0	813	791	628	2068	
4397	0	811	790	629	2056	
4398	0	812	790	629	2042	
4399	0	812	789	629	2035	
4400	0	811	789	629	2039	
4401	0	812	790	628	2049	
4402	0	810	790	629	2057	
4403	0	811	790	631	2060	
4404	0	811	790	629	2053	
4405	0	811	790	628	2048	
4406	0	812	791	628	2039	
4407	0	810	790	629	2030	
4408	0	811	790	630	2021	
4409	0	811	789	630	2015	
4410	0	812	789	629	2010	
4411	0	811	790	628	2014	
4412	0	811	790	629	2023	
4413	0	812	790	631	2038	
4414	0	812	790	629	2050	
4415	0	813	790	629	2065	
4416	0	812	791	629	2079	
4417	0	810	790	629	2092	
4418	0	812	790	630	2101	
4419	0	812	789	630	2104	
4420	0	812	790	630	2097	
4421	0	812	791	629	2089	
4422	0	812	789	630	2084	
4423	0	811	790	631	2079	
4424	0	812	790	629	2073	
4425	0	812	790	629	2067	
4426	0	812	790	629	2063	
4427	0	812	790	630	2063	
4428	0	811	790	630	2063	
4429	0	811	790	630	2063	
4430	0	811	789	629	2060	
4431	0	810	789	630	2058	
4432	0	812	790	630	2053	
4433	0	811	790	630	2045	
4434	0	811	790	628	2032	
4435	0	811	790	629	2020	
4436	0	811	790	628	2009	
4437	0	812	790	630	1995	
4438	0	811	790	630	1980	
4439	0	812	791	630	1966	
4440	0	812	790	629	1946	
4441	0	811	790	628	1937	
4442	0	812	791	630	1936	
4443	0	812	791	630	1922	
4444	0	812	789	629	1908	
4445	0	812	790	630	1916	
4446	0	812	791	629	1952	
4447	0	811	790	629	1996	
4448	0	811	791	630	2034	
4449	0	811	790	629	2064	
4450	0	812	790	629	2079	
4451	0	811	790	629	2086	
4452	0	810	790	629	2092	
4453	0	811	790	629	2099	
4454	0	812	789	630	2102	
4455	0	812	789	629	2104	
4456	0	812	789	629	2106	
4457	0	811	790	628	2107	
4458	0	812	790	630	2104	
4459	0	811	790	629	2095	
4460	0	812	790	629	2075	
4461	0	811	789	629	2056	
4462	0	812	789	629	2044	
4463	0	812	790	630	2033	
4464	0	811	789	629	2021	
4465	0	811	790	629	2013	
4466	0	810	790	629	2012	
4467	0	811	790	631	2013	
4468	0	811	790	630	2019	
4469	0	812	790	629	2023	
4470	0	812	790	629	2024	
4471	0	812	790	629	2025	
4472	0	813	790	629	2032	
4473	0	812	791	629	2039	
4474	0	811	790	629	2038	
4475	0	810	789	629	2030	
4476	0	810	789	629	2021	
4477	0	810	790	629	2013	
4478	0	811	790	630	2005	
4479	0	812	790	629	1995	
4480	0	813	790	630	1991	
4481	0	812	790	629	2000	
4482	0	811	790	629	2008	
4483	0	811	790	630	2016	
4484	0	811	790	629	2028	
4485	0	811	790	629	2044	
4486	0	812	790	629	2060	
4487	0	811	789	630	2073	
4488	0	812	790	631	2079	
4489	0	812	790	629	2081	
4490	0	811	790	629	2079	
4491	0	811	790	629	2078	
4492	0	812	790	630	2074	
4493	0	810	790	630	2068	
4494	0	811	790	628	2060	
4495	0	811	790	628	2053	
4496	0	811	790	629	2050	
4497	0	810	790	629	2049	
4498	0	811	790	630	2052	
4499	0	811	790	628	2060	
4500	0	813	791	630	2066	
4501	0	813	791	630	2067	
4502	0	811	790	629	2059	
4503	0	811	790	631	2048	
4504	0	811	790	629	2039	
4505	0	811	790	629	2022	
4506	0	811	790	629	2002	
4507	0	811	790	629	1986	
4508	0	811	790	630	1980	
4509	0	811	790	629	1981	
4510	0	811	790	629	1987	
4511	0	812	790	629	1995	
4512	0	811	790	630	2006	
4513	0	811	790	631	2019	
4514	0	811	790	629	2036	
4515	0	811	790	629	2050	
4516	0	811	790	630	2061	
4517	0	810	790	629	2061	
4518	0	811	790	631	2052	
4519	0	811	790	629	2042	
4520	0	811	790	630	2031	
4521	0	811	790	630	2022	
4522	0	811	789	630	2014	
4523	0	813	790	630	2006	
4524	0	811	790	629	2006	
4525	0	812	790	630	1995	
4526	0	811	789	630	1977	
4527	0	813	789	630	1976	
4528	0	812	792	631	2003	
4529	0	812	791	630	2044	
4530	0	811	790	630	2080	
4531	0	812	790	630	2106	
4532	0	812	790	630	2125	
4533	0	813	790	631	2137	
4534	0	812	790	630	2146	
4535	0	811	790	630	2153	
4536	0	810	790	630	2155	
4537	0	812	789	630	2152	
4538	0	811	790	631	2144	
4539	0	811	790	629	2136	
4540	0	811	791	630	2129	
4541	0	811	790	630	2122	
4542	0	811	790	630	2114	
4543	0	812	790	630	2107	
4544	0	811	791	629	2099	
4545	0	812	790	630	2081	
4546	0	811	790	630	2063	
4547	0	812	790	630	2050	
4548	0	811	790	630	2039	
4549	0	811	790	629	2028	
4550	0	810	790	630	2025	
4551	0	811	791	630	2028	
4552	0	812	791	629	2034	
4553	0	812	791	629	2037	
4554	0	811	790	629	2039	
4555	0	812	791	630	2033	
4556	0	812	791	630	2027	
4557	0	811	790	629	2030	
4558	0	811	790	630	2049	
4559	0	812	791	630	2070	
4560	0	811	790	629	2083	
4561	0	811	790	630	2096	
4562	0	811	791	631	2104	
4563	0	811	790	631	2107	
4564	0	811	791	631	2108	
4565	0	810	790	629	2103	
4566	0	810	790	629	2098	
4567	0	811	790	630	2095	
4568	0	812	791	630	2094	
4569	0	811	790	629	2082	
4570	0	812	791	630	2066	
4571	0	812	791	630	2043	
4572	0	812	790	629	2023	
4573	0	812	791	631	2013	
4574	0	811	790	629	2005	
4575	0	811	790	630	1996	
4576	0	811	790	629	1987	
4577	0	813	791	630	1979	
4578	0	811	791	630	1978	
4579	0	812	791	630	1984	
4580	0	811	790	630	1987	
4581	0	811	790	630	1992	
4582	0	812	789	630	1992	
4583	0	812	791	630	1998	
4584	0	810	790	629	2009	
4585	0	812	791	630	2028	
4586	0	811	789	630	2042	
4587	0	811	790	629	2053	
4588	0	811	791	630	2061	
4589	0	810	790	629	2062	
4590	0	810	790	629	2064	
4591	0	811	790	630	2069	
4592	0	812	791	630	2073	
4593	0	811	791	630	2078	
4594	0	812	791	630	2088	
4595	0	811	791	629	2094	
4596	0	811	791	630	2101	
4597	0	812	792	630	2106	
4598	0	811	791	630	2110	
4599	0	812	792	630	2106	
4600	0	811	791	629	2086	
4601	0	812	791	630	2081	
4602	0	812	791	631	2097	
4603	0	811	790	630	2127	
4604	0	812	791	630	2160	
4605	0	811	791	629	2174	
4606	0	812	791	629	2181	
4607	0	813	791	630	2177	
4608	0	812	791	629	2168	
4609	0	812	792	630	2167	
4610	0	811	790	630	2162	
4611	0	811	790	630	2157	
4612	0	812	791	631	2145	
4613	0	812	791	630	2130	
4614	0	811	790	630	2125	
4615	0	810	791	631	2120	
4616	0	812	790	631	2109	
4617	0	812	790	629	2104	
4618	0	812	790	630	2109	
4619	0	811	790	629	2116	
4620	0	811	791	631	2127	
4621	0	812	793	629	2132	
4622	0	813	791	630	2131	
4623	0	812	791	630	2124	
4624	0	811	790	629	2112	
4625	0	811	791	630	2108	
4626	0	812	790	630	2108	
4627	0	811	790	629	2111	
4628	0	810	791	629	2106	
4629	0	811	790	628	2096	
4630	0	810	790	629	2076	
4631	0	810	791	629	2055	
4632	0	810	790	629	2036	
4633	0	811	791	630	2024	
