# OpenSignals Text File Format. Version 1
# {"00:07:80:4C:2A:F7": {"position": 0, "device": "bioplux", "device name": "00:07:80:4C:2A:F7", "device connection": "BTH00:07:80:4C:2A:F7", "sampling rate": 500, "resolution": [12, 12, 12, 12], "firmware version": 512, "comments": "", "keywords": "", "mode": 0, "sync interval": 2, "date": "2024-3-27", "time": "11:53:1.964", "channels": [1, 2, 3, 4], "sensor": ["XYZ", "XYZ", "XYZ", "ECG"], "label": ["x", "y", "z", "CH4"], "column": ["nSeq", "DI", "x", "y", "z", "CH4"], "special": [{}, {}, {}, {}], "digital IO": [0, 1], "convertedValues": 0}}
# EndOfHeader
0	0	930	747	809	2069	
1	0	931	747	809	2066	
2	0	931	749	810	2065	
3	0	930	747	810	2065	
4	0	929	747	811	2061	
5	0	929	747	811	2061	
6	0	927	746	812	2062	
7	0	928	747	810	2059	
8	0	928	748	812	2060	
9	0	927	747	812	2058	
10	0	927	747	812	2059	
11	0	927	747	813	2062	
12	0	927	747	812	2060	
13	0	929	746	811	2061	
14	0	925	746	811	2065	
15	0	925	745	812	2065	
16	0	925	746	811	2062	
17	0	927	747	815	2062	
18	0	926	746	816	2059	
19	0	923	745	815	2063	
20	0	923	743	815	2053	
21	0	922	744	815	2058	
22	0	921	744	814	2066	
23	0	920	744	813	2068	
24	0	920	744	815	2065	
25	0	922	744	817	2065	
26	0	922	744	817	2064	
27	0	922	744	819	2063	
28	0	923	744	820	2059	
29	0	923	745	820	2064	
30	0	923	744	820	2072	
31	0	923	744	819	2071	
32	0	923	744	817	2070	
33	0	925	746	821	2072	
34	0	925	745	817	2071	
35	0	924	744	817	2071	
36	0	924	744	818	2072	
37	0	924	745	823	2072	
38	0	922	744	821	2070	
39	0	920	745	823	2067	
40	0	921	744	825	2069	
41	0	920	744	825	2064	
42	0	922	746	823	2036	
43	0	922	746	820	2054	
44	0	923	746	818	2069	
45	0	925	746	819	2070	
46	0	925	747	819	2063	
47	0	925	748	818	2056	
48	0	926	748	818	2049	
49	0	924	749	817	2043	
50	0	925	748	818	2044	
51	0	925	750	819	2039	
52	0	925	749	820	2034	
53	0	925	750	821	2033	
54	0	925	751	820	2035	
55	0	925	750	819	2035	
56	0	925	752	817	2028	
57	0	927	753	816	2022	
58	0	926	752	815	2012	
59	0	926	752	815	2015	
60	0	928	750	815	2020	
61	0	927	751	816	2025	
62	0	928	751	816	2029	
63	0	926	751	815	2020	
64	0	925	751	815	2014	
65	0	924	749	816	2013	
66	0	924	749	817	2020	
67	0	923	750	820	2022	
68	0	922	749	819	2023	
69	0	922	749	821	2022	
70	0	925	750	824	2019	
71	0	923	749	822	2019	
72	0	924	749	821	2019	
73	0	923	749	821	2022	
74	0	924	749	822	2024	
75	0	925	750	822	2024	
76	0	923	749	824	2031	
77	0	924	749	823	2032	
78	0	925	749	823	2035	
79	0	924	750	823	2039	
80	0	925	749	823	2045	
81	0	925	749	823	2050	
82	0	926	749	824	2057	
83	0	925	747	823	2066	
84	0	925	747	823	2069	
85	0	925	745	822	2076	
86	0	926	746	823	2079	
87	0	926	746	823	2085	
88	0	926	745	823	2088	
89	0	928	745	823	2094	
90	0	928	744	821	2098	
91	0	927	746	823	2100	
92	0	928	745	823	2099	
93	0	926	745	820	2097	
94	0	926	744	820	2098	
95	0	926	744	819	2098	
96	0	926	744	820	2096	
97	0	926	745	819	2097	
98	0	925	745	819	2097	
99	0	926	745	820	2096	
100	0	926	744	820	2096	
101	0	925	745	820	2095	
102	0	926	745	820	2093	
103	0	925	745	820	2092	
104	0	925	745	820	2091	
105	0	923	744	821	2091	
106	0	921	743	821	2089	
107	0	921	744	821	2087	
108	0	921	745	822	2084	
109	0	921	744	821	2075	
110	0	922	745	823	2066	
111	0	922	745	824	2062	
112	0	924	746	824	2049	
113	0	924	746	823	2028	
114	0	923	746	823	2002	
115	0	924	745	822	1955	
116	0	924	746	822	1898	
117	0	925	746	822	1858	
118	0	925	747	822	1840	
119	0	924	748	821	1857	
120	0	926	748	822	1900	
121	0	926	747	824	1937	
122	0	925	747	824	1944	
123	0	923	747	824	1943	
124	0	922	749	823	1958	
125	0	922	748	823	2013	
126	0	922	749	823	2102	
127	0	923	749	823	2214	
128	0	923	749	822	2350	
129	0	922	748	823	2456	
130	0	922	749	824	2496	
131	0	923	749	824	2478	
132	0	923	750	823	2427	
133	0	922	749	823	2368	
134	0	921	748	825	2309	
135	0	920	748	825	2256	
136	0	920	748	824	2207	
137	0	920	748	824	2164	
138	0	919	748	823	2124	
139	0	918	748	823	2090	
140	0	919	748	824	2062	
141	0	919	748	824	2046	
142	0	919	747	825	2038	
143	0	917	746	825	2033	
144	0	917	744	826	2032	
145	0	915	745	826	2035	
146	0	915	745	826	2034	
147	0	916	746	826	2035	
148	0	916	745	825	2038	
149	0	920	743	825	2036	
150	0	923	743	824	2036	
151	0	922	743	824	2033	
152	0	923	742	822	2033	
153	0	918	742	824	2032	
154	0	914	741	825	2032	
155	0	912	740	826	2032	
156	0	911	741	827	2034	
157	0	912	741	826	2034	
158	0	912	740	826	2029	
159	0	914	741	825	2024	
160	0	916	741	824	2024	
161	0	919	741	823	2022	
162	0	920	741	822	2021	
163	0	921	741	822	2025	
164	0	925	741	822	2021	
165	0	925	744	825	2021	
166	0	924	744	825	2016	
167	0	923	745	826	2012	
168	0	921	744	825	2010	
169	0	921	744	825	2010	
170	0	920	745	826	2009	
171	0	920	745	827	2009	
172	0	921	746	827	2012	
173	0	923	747	827	2013	
174	0	921	746	825	2007	
175	0	922	747	828	2002	
176	0	920	747	829	2002	
177	0	919	747	831	1997	
178	0	919	748	832	1997	
179	0	920	748	831	1996	
180	0	922	749	831	1995	
181	0	922	749	828	1998	
182	0	922	748	830	1999	
183	0	922	747	830	2001	
184	0	920	746	831	1996	
185	0	921	745	834	1988	
186	0	919	746	837	1989	
187	0	917	746	840	1988	
188	0	915	746	840	1986	
189	0	915	745	842	1985	
190	0	916	746	843	1986	
191	0	916	745	843	1983	
192	0	917	745	844	1981	
193	0	914	744	844	1983	
194	0	914	743	845	1986	
195	0	914	744	844	1985	
196	0	917	744	843	1982	
197	0	917	745	841	1979	
198	0	916	745	839	1978	
199	0	916	746	836	1976	
200	0	919	746	831	1975	
201	0	920	746	827	1972	
202	0	923	746	824	1971	
203	0	927	746	824	1972	
204	0	927	746	823	1969	
205	0	930	745	823	1964	
206	0	930	746	825	1959	
207	0	928	744	831	1950	
208	0	929	745	832	1951	
209	0	927	743	832	1945	
210	0	926	743	832	1946	
211	0	926	745	831	1942	
212	0	925	744	833	1940	
213	0	923	742	833	1939	
214	0	922	742	835	1939	
215	0	921	742	834	1938	
216	0	920	742	837	1933	
217	0	919	742	838	1930	
218	0	918	740	835	1928	
219	0	921	740	835	1927	
220	0	921	739	833	1929	
221	0	921	740	832	1926	
222	0	924	740	834	1922	
223	0	923	742	836	1920	
224	0	922	741	838	1912	
225	0	924	742	839	1918	
226	0	923	741	840	1906	
227	0	927	741	839	1907	
228	0	926	741	837	1908	
229	0	927	740	835	1906	
230	0	927	740	833	1906	
231	0	926	739	832	1907	
232	0	924	740	838	1902	
233	0	923	738	839	1902	
234	0	920	736	842	1907	
235	0	918	736	842	1909	
236	0	917	737	842	1909	
237	0	916	739	841	1910	
238	0	914	736	835	1912	
239	0	916	735	838	1911	
240	0	915	736	840	1915	
241	0	917	735	841	1915	
242	0	918	734	843	1911	
243	0	919	734	843	1915	
244	0	918	733	844	1919	
245	0	915	732	846	1923	
246	0	915	732	847	1931	
247	0	913	733	846	1937	
248	0	914	733	847	1935	
249	0	914	733	845	1935	
250	0	911	732	845	1944	
251	0	912	732	847	1949	
252	0	911	735	849	1952	
253	0	911	733	850	1955	
254	0	908	732	850	1964	
255	0	910	733	850	1975	
256	0	911	733	850	1981	
257	0	910	733	853	1986	
258	0	910	732	851	1999	
259	0	913	732	852	2010	
260	0	914	731	851	2019	
261	0	916	731	853	2028	
262	0	913	732	854	2039	
263	0	911	730	853	2044	
264	0	907	730	853	2048	
265	0	904	730	851	2058	
266	0	903	730	849	2069	
267	0	902	731	850	2079	
268	0	904	732	852	2088	
269	0	906	731	852	2093	
270	0	906	731	856	2100	
271	0	905	732	854	2105	
272	0	904	732	854	2114	
273	0	903	732	853	2122	
274	0	902	733	854	2126	
275	0	900	733	853	2133	
276	0	898	733	852	2137	
277	0	896	733	852	2144	
278	0	898	732	851	2151	
279	0	899	732	853	2155	
280	0	899	732	853	2159	
281	0	899	733	853	2159	
282	0	899	733	854	2158	
283	0	900	734	854	2160	
284	0	899	734	855	2164	
285	0	898	734	853	2172	
286	0	896	733	850	2171	
287	0	898	733	851	2166	
288	0	897	734	855	2180	
289	0	898	733	854	2177	
290	0	895	733	853	2175	
291	0	895	733	853	2176	
292	0	893	734	853	2175	
293	0	893	734	853	2170	
294	0	894	734	853	2172	
295	0	894	734	853	2171	
296	0	895	734	854	2168	
297	0	894	734	855	2168	
298	0	893	733	854	2169	
299	0	893	733	853	2164	
300	0	891	733	851	2166	
301	0	889	732	851	2164	
302	0	889	733	852	2162	
303	0	889	732	852	2161	
304	0	890	732	853	2160	
305	0	891	732	850	2160	
306	0	891	732	850	2159	
307	0	890	732	850	2161	
308	0	888	731	848	2156	
309	0	887	731	848	2154	
310	0	888	731	849	2155	
311	0	887	728	846	2154	
312	0	887	730	846	2150	
313	0	887	729	845	2148	
314	0	892	730	846	2150	
315	0	891	730	848	2147	
316	0	891	729	848	2148	
317	0	891	730	849	2144	
318	0	890	729	847	2140	
319	0	886	728	847	2133	
320	0	884	729	845	2133	
321	0	883	728	844	2136	
322	0	881	728	845	2137	
323	0	882	728	843	2136	
324	0	879	729	844	2126	
325	0	882	728	844	2118	
326	0	885	729	845	2116	
327	0	884	728	845	2112	
328	0	886	728	845	2106	
329	0	886	727	845	2104	
330	0	886	728	845	2112	
331	0	886	727	846	2116	
332	0	886	727	846	2093	
333	0	886	727	845	2062	
334	0	888	727	845	2089	
335	0	890	728	847	2103	
336	0	890	728	847	2110	
337	0	890	728	848	2123	
338	0	894	729	847	2121	
339	0	893	727	848	2112	
340	0	892	729	847	2106	
341	0	893	730	847	2106	
342	0	893	729	849	2120	
343	0	893	729	848	2118	
344	0	894	729	849	2110	
345	0	892	729	848	2106	
346	0	892	730	848	2102	
347	0	892	731	849	2103	
348	0	892	732	849	2103	
349	0	896	732	850	2107	
350	0	896	731	850	2107	
351	0	897	731	850	2105	
352	0	899	730	852	2102	
353	0	899	728	851	2099	
354	0	901	728	850	2099	
355	0	899	728	852	2102	
356	0	898	727	851	2100	
357	0	899	727	851	2098	
358	0	899	726	851	2098	
359	0	900	725	852	2101	
360	0	898	726	851	2102	
361	0	900	727	852	2100	
362	0	903	728	851	2099	
363	0	904	727	850	2099	
364	0	903	727	850	2102	
365	0	902	727	849	2104	
366	0	902	727	851	2106	
367	0	901	727	851	2105	
368	0	901	727	851	2103	
369	0	901	727	852	2100	
370	0	903	728	852	2099	
371	0	905	729	851	2096	
372	0	908	730	851	2095	
373	0	910	730	850	2094	
374	0	911	728	851	2094	
375	0	908	728	851	2092	
376	0	906	727	851	2089	
377	0	907	726	851	2089	
378	0	904	727	852	2090	
379	0	907	726	852	2091	
380	0	906	726	850	2096	
381	0	907	726	852	2099	
382	0	907	726	852	2095	
383	0	906	726	852	2093	
384	0	907	725	852	2092	
385	0	907	725	850	2092	
386	0	908	726	850	2090	
387	0	906	726	851	2089	
388	0	906	726	850	2087	
389	0	905	725	850	2085	
390	0	904	725	850	2086	
391	0	904	725	850	2083	
392	0	903	725	850	2081	
393	0	903	725	850	2077	
394	0	904	727	851	2072	
395	0	904	725	849	2065	
396	0	905	725	850	2056	
397	0	906	726	850	2053	
398	0	903	726	850	2046	
399	0	905	725	848	2038	
400	0	904	727	847	2035	
401	0	904	727	847	2032	
402	0	902	728	847	2031	
403	0	899	728	847	2029	
404	0	901	728	847	2031	
405	0	900	728	846	2030	
406	0	901	728	847	2029	
407	0	902	730	847	2030	
408	0	902	730	847	2030	
409	0	904	730	847	2030	
410	0	903	730	847	2029	
411	0	903	730	847	2024	
412	0	902	731	847	2024	
413	0	903	730	846	2028	
414	0	904	731	846	2031	
415	0	903	732	846	2029	
416	0	903	732	847	2024	
417	0	903	731	845	2019	
418	0	901	733	848	2021	
419	0	903	731	847	2021	
420	0	904	733	847	2023	
421	0	905	733	847	2025	
422	0	905	733	848	2025	
423	0	906	733	847	2027	
424	0	908	733	847	2031	
425	0	906	734	846	2031	
426	0	906	734	845	2031	
427	0	904	734	847	2032	
428	0	904	734	847	2038	
429	0	906	733	847	2038	
430	0	906	733	848	2043	
431	0	908	734	846	2066	
432	0	909	734	846	2086	
433	0	909	734	845	2092	
434	0	912	737	846	2094	
435	0	909	733	846	2092	
436	0	908	733	847	2086	
437	0	909	734	848	2090	
438	0	906	734	848	2091	
439	0	906	733	849	2093	
440	0	905	733	848	2100	
441	0	906	732	844	2099	
442	0	907	732	844	2100	
443	0	909	731	843	2095	
444	0	909	732	843	2093	
445	0	908	731	844	2094	
446	0	907	731	847	2091	
447	0	902	732	851	2087	
448	0	894	730	846	2084	
449	0	895	729	839	2087	
450	0	900	731	835	2088	
451	0	909	731	833	2085	
452	0	915	733	834	2085	
453	0	919	733	834	2083	
454	0	921	733	835	2080	
455	0	920	733	837	2075	
456	0	917	733	836	2065	
457	0	913	733	836	2053	
458	0	909	732	835	2039	
459	0	906	732	835	2033	
460	0	906	732	836	2015	
461	0	903	732	835	1972	
462	0	904	731	835	1921	
463	0	904	732	836	1862	
464	0	909	732	830	1818	
465	0	911	732	829	1801	
466	0	914	733	828	1819	
467	0	914	732	828	1859	
468	0	911	731	828	1884	
469	0	909	731	829	1882	
470	0	904	730	832	1885	
471	0	903	730	833	1923	
472	0	902	730	834	1994	
473	0	902	729	834	2100	
474	0	904	729	832	2229	
475	0	907	728	833	2375	
476	0	911	729	832	2478	
477	0	914	729	832	2501	
478	0	915	729	832	2470	
479	0	916	729	832	2418	
480	0	917	730	833	2358	
481	0	917	727	833	2294	
482	0	915	726	832	2240	
483	0	914	726	830	2185	
484	0	914	725	829	2139	
485	0	914	727	828	2099	
486	0	914	726	827	2066	
487	0	911	725	827	2041	
488	0	908	725	828	2026	
489	0	906	724	829	2025	
490	0	902	726	830	2022	
491	0	903	727	831	2022	
492	0	903	728	833	2024	
493	0	906	728	833	2024	
494	0	908	728	833	2022	
495	0	910	729	833	2021	
496	0	910	730	833	2020	
497	0	911	731	835	2017	
498	0	910	731	836	2016	
499	0	911	729	832	2012	
500	0	908	726	826	2012	
501	0	908	725	822	2014	
502	0	909	727	824	2013	
503	0	909	730	829	2008	
504	0	913	731	824	2011	
505	0	914	734	821	2014	
506	0	918	736	822	2010	
507	0	921	737	829	2008	
508	0	922	737	833	2007	
509	0	923	737	832	2009	
510	0	921	735	827	2008	
511	0	920	735	828	2008	
512	0	920	735	829	2010	
513	0	920	736	826	2004	
514	0	923	738	823	1998	
515	0	924	741	820	1996	
516	0	925	742	818	1998	
517	0	923	743	818	1999	
518	0	924	743	817	2000	
519	0	921	743	810	1990	
520	0	918	742	803	1993	
521	0	918	742	802	1997	
522	0	920	743	798	1999	
523	0	920	743	800	1998	
524	0	927	744	806	1993	
525	0	929	744	806	1992	
526	0	935	745	804	1990	
527	0	934	745	807	1988	
528	0	932	746	812	1988	
529	0	932	747	819	1984	
530	0	930	747	826	1977	
531	0	930	750	832	1981	
532	0	930	751	832	1979	
533	0	930	752	832	1979	
534	0	936	752	827	1982	
535	0	935	755	816	1983	
536	0	935	757	814	1980	
537	0	935	756	817	1980	
538	0	934	757	820	1977	
539	0	933	759	823	1976	
540	0	930	758	828	1974	
541	0	930	758	832	1974	
542	0	933	761	831	1975	
543	0	931	762	829	1974	
544	0	932	765	823	1976	
545	0	932	763	821	1974	
546	0	934	764	824	1971	
547	0	936	763	828	1971	
548	0	937	764	831	1968	
549	0	936	764	827	1967	
550	0	935	763	822	1967	
551	0	934	762	818	1966	
552	0	932	762	815	1965	
553	0	931	763	812	1961	
554	0	931	762	813	1958	
555	0	930	760	812	1956	
556	0	930	760	813	1955	
557	0	929	760	812	1953	
558	0	929	758	809	1951	
559	0	930	760	807	1951	
560	0	929	759	807	1948	
561	0	931	758	810	1948	
562	0	930	756	811	1949	
563	0	931	755	809	1945	
564	0	931	757	808	1944	
565	0	931	756	808	1942	
566	0	929	754	807	1937	
567	0	928	752	808	1935	
568	0	927	753	809	1934	
569	0	927	752	808	1934	
570	0	926	751	807	1932	
571	0	926	751	805	1931	
572	0	927	752	805	1931	
573	0	927	753	805	1926	
574	0	928	754	807	1925	
575	0	929	753	808	1924	
576	0	929	753	808	1924	
577	0	928	754	808	1923	
578	0	928	755	809	1919	
579	0	928	755	810	1918	
580	0	926	754	810	1917	
581	0	926	755	811	1916	
582	0	924	756	813	1915	
583	0	923	757	815	1917	
584	0	922	757	818	1917	
585	0	921	759	821	1920	
586	0	921	758	821	1919	
587	0	920	760	818	1917	
588	0	923	762	817	1914	
589	0	927	765	816	1917	
590	0	931	767	818	1920	
591	0	933	767	817	1919	
592	0	936	768	814	1920	
593	0	938	768	808	1920	
594	0	943	775	808	1920	
595	0	943	777	807	1922	
596	0	943	778	802	1926	
597	0	941	775	793	1933	
598	0	940	778	785	1932	
599	0	937	781	784	1936	
600	0	933	779	786	1939	
601	0	931	778	789	1942	
602	0	931	775	793	1954	
603	0	935	773	797	1961	
604	0	940	772	802	1962	
605	0	944	770	804	1968	
606	0	946	769	802	1977	
607	0	946	769	799	1983	
608	0	947	770	795	1989	
609	0	944	773	793	1998	
610	0	941	772	793	2004	
611	0	940	774	795	2011	
612	0	939	774	797	2021	
613	0	940	775	798	2029	
614	0	941	772	799	2037	
615	0	944	776	800	2043	
616	0	944	774	799	2048	
617	0	946	777	801	2056	
618	0	950	776	802	2064	
619	0	950	779	801	2068	
620	0	948	772	798	2075	
621	0	946	773	794	2077	
622	0	943	772	792	2081	
623	0	941	772	796	2088	
624	0	942	777	800	2090	
625	0	944	778	805	2093	
626	0	946	776	806	2096	
627	0	948	779	806	2098	
628	0	947	780	802	2099	
629	0	946	781	801	2103	
630	0	943	779	797	2110	
631	0	940	779	798	2110	
632	0	940	780	799	2112	
633	0	939	780	801	2113	
634	0	940	785	803	2115	
635	0	939	784	805	2118	
636	0	939	785	802	2116	
637	0	939	784	801	2117	
638	0	942	782	804	2116	
639	0	945	783	807	2115	
640	0	945	782	812	2112	
641	0	944	782	812	2111	
642	0	941	780	808	2113	
643	0	939	780	803	2112	
644	0	939	783	800	2111	
645	0	938	783	799	2110	
646	0	936	780	803	2109	
647	0	937	777	806	2109	
648	0	934	780	804	2107	
649	0	932	781	799	2108	
650	0	929	783	797	2107	
651	0	931	783	797	2106	
652	0	933	781	802	2107	
653	0	933	781	805	2105	
654	0	932	783	805	2102	
655	0	930	788	805	2100	
656	0	930	784	803	2099	
657	0	930	778	801	2099	
658	0	931	777	802	2096	
659	0	932	779	805	2097	
660	0	933	776	805	2094	
661	0	935	777	804	2093	
662	0	937	772	803	2094	
663	0	937	770	806	2091	
664	0	938	772	807	2089	
665	0	936	772	804	2084	
666	0	935	772	800	2084	
667	0	934	773	800	2086	
668	0	934	773	800	2084	
669	0	935	774	801	2084	
670	0	936	774	804	2083	
671	0	939	776	806	2083	
672	0	940	775	806	2083	
673	0	943	773	807	2081	
674	0	942	775	807	2076	
675	0	942	774	808	2075	
676	0	941	777	809	2072	
677	0	940	777	807	2074	
678	0	937	777	805	2073	
679	0	937	779	804	2074	
680	0	937	779	805	2074	
681	0	938	781	808	2073	
682	0	939	781	809	2069	
683	0	942	782	810	2055	
684	0	944	783	810	2057	
685	0	944	784	811	2063	
686	0	943	785	812	2064	
687	0	943	785	813	2071	
688	0	943	786	814	2073	
689	0	943	787	815	2072	
690	0	946	788	816	2070	
691	0	945	788	815	2067	
692	0	945	789	815	2072	
693	0	943	788	814	2073	
694	0	941	789	815	2072	
695	0	940	788	816	2072	
696	0	937	788	816	2068	
697	0	936	788	816	2069	
698	0	937	787	815	2067	
699	0	937	787	816	2066	
700	0	937	787	817	2069	
701	0	935	786	816	2066	
702	0	936	788	816	2066	
703	0	934	788	818	2065	
704	0	936	787	822	2070	
705	0	937	790	822	2073	
706	0	936	790	820	2069	
707	0	934	789	818	2069	
708	0	930	788	816	2068	
709	0	925	788	816	2067	
710	0	920	788	815	2065	
711	0	919	789	815	2067	
712	0	923	790	817	2069	
713	0	932	791	822	2067	
714	0	940	792	824	2065	
715	0	942	790	823	2066	
716	0	939	791	821	2066	
717	0	932	790	820	2068	
718	0	927	788	818	2070	
719	0	924	790	816	2071	
720	0	926	789	817	2075	
721	0	925	788	818	2069	
722	0	925	787	819	2070	
723	0	926	787	820	2069	
724	0	927	787	821	2069	
725	0	927	787	820	2075	
726	0	926	787	818	2073	
727	0	925	785	816	2072	
728	0	924	785	815	2070	
729	0	924	786	817	2068	
730	0	923	784	814	2070	
731	0	919	783	816	2071	
732	0	918	782	816	2073	
733	0	917	782	817	2076	
734	0	919	783	815	2072	
735	0	920	781	814	2070	
736	0	922	780	815	2071	
737	0	923	778	814	2071	
738	0	925	778	813	2070	
739	0	925	777	813	2070	
740	0	924	775	813	2071	
741	0	922	774	812	2071	
742	0	922	772	811	2072	
743	0	922	772	812	2070	
744	0	922	771	811	2069	
745	0	922	770	810	2067	
746	0	922	769	810	2065	
747	0	921	767	809	2066	
748	0	923	767	811	2065	
749	0	925	767	811	2065	
750	0	926	765	809	2068	
751	0	926	765	810	2067	
752	0	928	763	812	2071	
753	0	927	760	811	2070	
754	0	924	758	807	2067	
755	0	922	758	803	2064	
756	0	924	760	805	2064	
757	0	928	760	807	2066	
758	0	930	760	811	2069	
759	0	929	760	807	2065	
760	0	927	760	804	2067	
761	0	924	760	803	2066	
762	0	923	759	804	2063	
763	0	924	759	805	2064	
764	0	926	759	805	2065	
765	0	929	759	805	2064	
766	0	931	758	805	2063	
767	0	930	757	805	2064	
768	0	927	757	805	2063	
769	0	925	756	804	2065	
770	0	924	755	805	2064	
771	0	923	755	803	2065	
772	0	924	754	801	2064	
773	0	926	755	803	2064	
774	0	924	755	804	2063	
775	0	926	754	805	2065	
776	0	926	756	804	2066	
777	0	926	755	804	2066	
778	0	927	756	805	2063	
779	0	928	756	806	2061	
780	0	930	756	806	2061	
781	0	930	756	806	2062	
782	0	932	755	806	2060	
783	0	933	755	806	2058	
784	0	934	756	806	2060	
785	0	934	756	805	2057	
786	0	935	756	806	2052	
787	0	935	755	806	2047	
788	0	934	755	808	2040	
789	0	935	755	808	2030	
790	0	937	756	810	2030	
791	0	938	756	809	2023	
792	0	938	755	808	2010	
793	0	940	757	809	1999	
794	0	940	759	812	2005	
795	0	942	761	813	2019	
796	0	942	761	815	2018	
797	0	942	762	814	2022	
798	0	941	766	817	2021	
799	0	942	766	818	2014	
800	0	942	766	818	2012	
801	0	945	767	819	2005	
802	0	946	766	819	2007	
803	0	948	767	819	2007	
804	0	948	767	819	2008	
805	0	946	765	819	2012	
806	0	946	765	820	2011	
807	0	945	764	821	2007	
808	0	945	764	821	2001	
809	0	946	764	821	2004	
810	0	947	763	821	2008	
811	0	949	763	821	2012	
812	0	952	761	820	2015	
813	0	954	760	820	2018	
814	0	953	759	818	2026	
815	0	951	758	817	2028	
816	0	952	756	818	2028	
817	0	953	756	817	2023	
818	0	959	755	818	2035	
819	0	963	755	817	2043	
820	0	965	754	819	2047	
821	0	967	755	821	2053	
822	0	965	753	820	2060	
823	0	964	755	821	2065	
824	0	963	755	818	2070	
825	0	962	755	818	2077	
826	0	959	755	818	2085	
827	0	960	754	819	2091	
828	0	963	755	823	2090	
829	0	964	755	822	2091	
830	0	965	757	826	2091	
831	0	966	759	828	2091	
832	0	964	760	829	2092	
833	0	959	760	829	2090	
834	0	952	760	828	2085	
835	0	951	760	829	2085	
836	0	954	763	832	2085	
837	0	959	764	833	2086	
838	0	960	765	836	2086	
839	0	958	765	839	2085	
840	0	954	764	839	2084	
841	0	951	765	840	2084	
842	0	952	767	841	2085	
843	0	952	766	842	2083	
844	0	954	767	841	2080	
845	0	951	766	840	2076	
846	0	949	766	839	2067	
847	0	948	768	841	2056	
848	0	946	767	841	2046	
849	0	947	767	843	2034	
850	0	945	766	840	2012	
851	0	945	764	840	1982	
852	0	944	764	841	1936	
853	0	942	763	839	1881	
854	0	941	760	838	1831	
855	0	941	759	835	1803	
856	0	942	760	837	1809	
857	0	943	758	837	1844	
858	0	938	754	833	1882	
859	0	933	752	827	1890	
860	0	930	750	825	1885	
861	0	930	749	824	1901	
862	0	932	747	823	1956	
863	0	932	746	822	2050	
864	0	931	744	823	2174	
865	0	929	742	822	2323	
866	0	929	740	821	2458	
867	0	927	740	821	2519	
868	0	925	739	819	2506	
869	0	924	739	818	2460	
870	0	924	740	819	2404	
871	0	922	739	820	2343	
872	0	922	739	820	2284	
873	0	920	740	819	2231	
874	0	916	740	818	2180	
875	0	916	741	818	2140	
876	0	913	741	818	2098	
877	0	915	742	819	2067	
878	0	915	743	818	2044	
879	0	917	740	819	2031	
880	0	918	742	822	2025	
881	0	914	738	816	2022	
882	0	912	740	816	2022	
883	0	910	739	815	2023	
884	0	911	740	817	2024	
885	0	910	740	815	2025	
886	0	909	740	815	2026	
887	0	907	739	815	2027	
888	0	905	738	814	2023	
889	0	908	739	816	2024	
890	0	905	738	815	2022	
891	0	904	738	814	2021	
892	0	908	740	816	2022	
893	0	907	739	816	2018	
894	0	910	740	817	2013	
895	0	908	742	817	2014	
896	0	907	742	819	2014	
897	0	913	745	821	2016	
898	0	916	747	823	2015	
899	0	918	749	827	2013	
900	0	916	751	828	2014	
901	0	912	750	826	2012	
902	0	911	750	825	2011	
903	0	912	752	825	2011	
904	0	913	753	827	2013	
905	0	913	752	827	2012	
906	0	910	753	830	2011	
907	0	911	754	831	2010	
908	0	912	753	830	2009	
909	0	913	754	831	2009	
910	0	913	753	830	2009	
911	0	913	752	832	2009	
912	0	912	752	832	2010	
913	0	912	751	831	2007	
914	0	912	752	831	2006	
915	0	912	751	831	2004	
916	0	913	751	832	2002	
917	0	912	751	832	2004	
918	0	913	751	831	2002	
919	0	912	751	831	2002	
920	0	912	749	831	2003	
921	0	911	749	831	2005	
922	0	912	750	833	2004	
923	0	907	747	827	2001	
924	0	911	749	829	2003	
925	0	914	748	831	2001	
926	0	913	747	833	1996	
927	0	913	748	834	1996	
928	0	911	746	827	1998	
929	0	911	746	828	1993	
930	0	910	746	827	1995	
931	0	912	747	827	1996	
932	0	909	748	828	1995	
933	0	908	747	826	1992	
934	0	907	747	830	1985	
935	0	907	747	828	1983	
936	0	908	747	829	1980	
937	0	907	746	828	1979	
938	0	908	748	827	1975	
939	0	909	747	830	1973	
940	0	909	745	831	1975	
941	0	907	744	828	1974	
942	0	908	744	829	1974	
943	0	909	742	827	1972	
944	0	908	744	831	1975	
945	0	907	742	829	1973	
946	0	904	742	829	1971	
947	0	903	742	828	1972	
948	0	904	741	828	1971	
949	0	906	741	828	1966	
950	0	908	741	828	1965	
951	0	908	741	829	1962	
952	0	908	741	830	1961	
953	0	907	742	830	1957	
954	0	906	742	832	1950	
955	0	908	743	832	1950	
956	0	905	742	831	1944	
957	0	903	742	830	1942	
958	0	904	742	827	1944	
959	0	905	742	829	1939	
960	0	905	742	829	1936	
961	0	902	740	830	1930	
962	0	901	740	827	1928	
963	0	903	741	827	1927	
964	0	903	741	830	1930	
965	0	902	739	826	1929	
966	0	901	739	826	1928	
967	0	900	739	825	1928	
968	0	900	739	827	1928	
969	0	899	739	827	1926	
970	0	901	739	824	1923	
971	0	902	739	826	1921	
972	0	903	739	824	1922	
973	0	901	739	823	1917	
974	0	901	737	823	1918	
975	0	899	738	821	1919	
976	0	899	737	819	1915	
977	0	899	735	818	1916	
978	0	900	734	817	1914	
979	0	898	731	817	1914	
980	0	897	733	815	1914	
981	0	896	731	814	1915	
982	0	897	730	813	1915	
983	0	897	731	813	1914	
984	0	896	730	815	1918	
985	0	896	729	812	1915	
986	0	896	728	813	1919	
987	0	896	728	810	1923	
988	0	897	727	810	1927	
989	0	898	727	810	1927	
990	0	898	726	810	1927	
991	0	899	727	810	1930	
992	0	898	727	809	1936	
993	0	901	727	810	1940	
994	0	903	727	811	1946	
995	0	904	727	810	1952	
996	0	904	726	811	1958	
997	0	904	726	811	1970	
998	0	903	725	810	1978	
999	0	906	726	812	1990	
1000	0	905	726	813	1997	
1001	0	906	726	812	2001	
1002	0	904	725	810	2007	
1003	0	904	724	810	2020	
1004	0	905	726	811	2032	
1005	0	904	723	810	2037	
1006	0	904	724	811	2043	
1007	0	907	725	810	2049	
1008	0	909	725	811	2055	
1009	0	907	725	811	2060	
1010	0	907	724	810	2065	
1011	0	908	726	811	2071	
1012	0	908	725	810	2076	
1013	0	910	727	809	2083	
1014	0	909	726	812	2082	
1015	0	909	726	811	2086	
1016	0	908	727	812	2090	
1017	0	910	728	812	2093	
1018	0	912	728	814	2096	
1019	0	911	729	813	2100	
1020	0	912	729	812	2103	
1021	0	913	730	813	2105	
1022	0	914	731	814	2111	
1023	0	912	730	813	2111	
1024	0	912	731	813	2111	
1025	0	913	731	813	2112	
1026	0	913	731	813	2114	
1027	0	912	731	812	2115	
1028	0	913	733	812	2116	
1029	0	913	732	814	2114	
1030	0	915	731	814	2115	
1031	0	913	732	814	2115	
1032	0	914	732	813	2116	
1033	0	914	732	813	2116	
1034	0	915	733	814	2115	
1035	0	917	733	812	2115	
1036	0	917	733	813	2115	
1037	0	918	734	812	2116	
1038	0	917	733	813	2116	
1039	0	917	734	813	2115	
1040	0	920	735	814	2117	
1041	0	920	734	814	2113	
1042	0	921	736	816	2116	
1043	0	921	735	815	2114	
1044	0	922	735	815	2113	
1045	0	923	736	815	2109	
1046	0	924	736	815	2108	
1047	0	926	736	815	2108	
1048	0	927	736	815	2110	
1049	0	928	736	816	2112	
1050	0	930	736	817	2114	
1051	0	929	737	816	2112	
1052	0	928	737	815	2106	
1053	0	928	736	815	2103	
1054	0	929	737	816	2095	
1055	0	930	737	816	2095	
1056	0	933	738	817	2094	
1057	0	932	737	816	2095	
1058	0	932	739	819	2095	
1059	0	929	739	818	2095	
1060	0	928	740	820	2093	
1061	0	929	741	821	2092	
1062	0	927	742	822	2091	
1063	0	928	743	823	2089	
1064	0	928	744	823	2093	
1065	0	928	745	822	2091	
1066	0	927	744	822	2090	
1067	0	925	746	823	2091	
1068	0	924	746	825	2090	
1069	0	927	747	826	2089	
1070	0	925	749	825	2087	
1071	0	925	749	827	2085	
1072	0	923	749	827	2083	
1073	0	924	750	827	2082	
1074	0	924	751	828	2080	
1075	0	924	751	827	2078	
1076	0	925	751	828	2074	
1077	0	924	751	827	2075	
1078	0	925	750	828	2076	
1079	0	922	750	828	2076	
1080	0	923	750	827	2072	
1081	0	922	749	827	2070	
1082	0	922	749	826	2072	
1083	0	922	749	826	2077	
1084	0	920	748	825	2080	
1085	0	920	748	824	2080	
1086	0	922	745	823	2079	
1087	0	921	745	822	2081	
1088	0	922	745	822	2081	
1089	0	923	746	823	2082	
1090	0	921	745	823	2072	
1091	0	922	744	821	2059	
1092	0	923	745	822	2063	
1093	0	922	744	820	2074	
1094	0	923	743	821	2078	
1095	0	922	744	820	2082	
1096	0	922	743	820	2080	
1097	0	923	743	818	2077	
1098	0	923	743	818	2075	
1099	0	923	742	818	2077	
1100	0	922	742	817	2080	
1101	0	923	742	816	2078	
1102	0	924	741	816	2068	
1103	0	924	741	815	2069	
1104	0	925	742	815	2079	
1105	0	925	741	815	2084	
1106	0	927	740	815	2088	
1107	0	926	741	813	2088	
1108	0	928	741	815	2092	
1109	0	926	742	815	2089	
1110	0	926	742	815	2085	
1111	0	926	743	816	2083	
1112	0	927	744	816	2082	
1113	0	928	744	817	2082	
1114	0	928	746	818	2082	
1115	0	927	747	819	2085	
1116	0	929	746	819	2083	
1117	0	928	748	820	2086	
1118	0	927	748	819	2083	
1119	0	927	748	820	2083	
1120	0	927	748	820	2080	
1121	0	927	749	820	2079	
1122	0	926	749	820	2081	
1123	0	927	749	820	2080	
1124	0	926	749	821	2082	
1125	0	925	749	820	2081	
1126	0	926	749	820	2079	
1127	0	925	749	820	2078	
1128	0	926	748	820	2078	
1129	0	926	748	820	2080	
1130	0	924	747	820	2076	
1131	0	926	747	820	2072	
1132	0	926	747	820	2073	
1133	0	925	747	817	2076	
1134	0	927	746	817	2081	
1135	0	923	747	818	2083	
1136	0	922	744	817	2071	
1137	0	921	744	817	2072	
1138	0	922	744	816	2078	
1139	0	923	744	816	2081	
1140	0	922	744	816	2076	
1141	0	922	746	815	2072	
1142	0	923	743	815	2072	
1143	0	921	743	815	2072	
1144	0	920	743	815	2076	
1145	0	920	743	814	2079	
1146	0	920	742	813	2082	
1147	0	919	741	813	2080	
1148	0	919	741	813	2075	
1149	0	919	741	813	2075	
1150	0	920	740	812	2075	
1151	0	922	741	811	2076	
1152	0	920	740	811	2081	
1153	0	920	739	810	2083	
1154	0	920	738	810	2085	
1155	0	920	739	809	2089	
1156	0	920	739	810	2086	
1157	0	919	737	809	2083	
1158	0	919	737	808	2082	
1159	0	919	736	808	2083	
1160	0	920	737	807	2081	
1161	0	921	737	808	2081	
1162	0	920	737	807	2085	
1163	0	920	736	807	2081	
1164	0	920	735	807	2079	
1165	0	920	735	807	2073	
1166	0	921	736	807	2074	
1167	0	920	736	806	2076	
1168	0	919	737	807	2078	
1169	0	921	737	808	2082	
1170	0	920	739	811	2084	
1171	0	921	738	808	2082	
1172	0	920	740	808	2078	
1173	0	923	739	809	2077	
1174	0	921	740	809	2078	
1175	0	922	740	809	2075	
1176	0	922	741	809	2069	
1177	0	921	740	810	2067	
1178	0	921	741	810	2063	
1179	0	921	741	810	2056	
1180	0	921	741	812	2044	
1181	0	921	741	810	2037	
1182	0	919	741	810	2029	
1183	0	919	742	810	2026	
1184	0	919	741	810	2032	
1185	0	920	743	811	2037	
1186	0	920	741	809	2037	
1187	0	920	743	810	2041	
1188	0	919	743	810	2035	
1189	0	918	741	810	2033	
1190	0	918	742	809	2033	
1191	0	918	742	809	2030	
1192	0	920	743	811	2030	
1193	0	918	742	810	2026	
1194	0	918	743	809	2020	
1195	0	918	742	812	2023	
1196	0	919	741	809	2023	
1197	0	918	740	809	2019	
1198	0	917	740	809	2012	
1199	0	917	739	809	2014	
1200	0	917	740	807	2017	
1201	0	918	739	807	2018	
1202	0	916	740	807	2024	
1203	0	917	740	807	2022	
1204	0	917	739	807	2027	
1205	0	917	740	806	2034	
1206	0	919	739	806	2037	
1207	0	917	739	806	2032	
1208	0	918	738	806	2033	
1209	0	918	737	806	2042	
1210	0	918	737	806	2047	
1211	0	920	737	804	2052	
1212	0	920	735	803	2058	
1213	0	921	735	803	2063	
1214	0	922	734	803	2066	
1215	0	923	734	802	2070	
1216	0	926	734	801	2077	
1217	0	927	733	800	2080	
1218	0	929	731	800	2080	
1219	0	928	729	800	2080	
1220	0	930	729	798	2079	
1221	0	934	727	797	2082	
1222	0	932	726	797	2082	
1223	0	932	725	797	2078	
1224	0	932	724	797	2082	
1225	0	934	724	797	2083	
1226	0	935	725	796	2083	
1227	0	934	726	798	2084	
1228	0	934	725	798	2080	
1229	0	934	726	798	2078	
1230	0	934	728	798	2077	
1231	0	933	728	798	2077	
1232	0	932	729	800	2076	
1233	0	932	730	799	2077	
1234	0	934	732	801	2079	
1235	0	940	735	802	2073	
1236	0	943	735	804	2065	
1237	0	936	738	805	2052	
1238	0	932	739	805	2040	
1239	0	930	740	806	2031	
1240	0	932	742	807	2009	
1241	0	935	745	809	1978	
1242	0	935	745	809	1932	
1243	0	935	746	809	1879	
1244	0	934	747	812	1831	
1245	0	931	748	813	1802	
1246	0	931	750	813	1799	
1247	0	930	750	812	1829	
1248	0	931	752	813	1868	
1249	0	932	753	815	1883	
1250	0	929	752	816	1881	
1251	0	929	754	815	1892	
1252	0	933	756	817	1939	
1253	0	932	755	817	2025	
1254	0	932	756	819	2148	
1255	0	928	756	818	2291	
1256	0	929	756	818	2430	
1257	0	928	756	818	2505	
1258	0	928	756	818	2508	
1259	0	928	756	819	2471	
1260	0	929	757	819	2416	
1261	0	927	756	820	2354	
1262	0	926	757	819	2290	
1263	0	927	756	819	2236	
1264	0	926	756	819	2191	
1265	0	926	756	819	2141	
1266	0	927	756	819	2094	
1267	0	926	756	818	2059	
1268	0	926	754	818	2036	
1269	0	926	754	819	2024	
1270	0	926	755	818	2018	
1271	0	927	755	818	2018	
1272	0	926	755	818	2021	
1273	0	925	755	818	2026	
1274	0	926	754	818	2027	
1275	0	926	754	818	2021	
1276	0	925	754	816	2019	
1277	0	929	757	817	2019	
1278	0	933	755	816	2013	
1279	0	929	754	817	2010	
1280	0	926	753	816	2008	
1281	0	926	754	817	2010	
1282	0	926	753	817	2007	
1283	0	930	753	817	2007	
1284	0	930	752	818	2004	
1285	0	931	753	818	2001	
1286	0	930	754	817	1999	
1287	0	930	753	817	1997	
1288	0	931	753	818	1999	
1289	0	930	755	817	1998	
1290	0	931	755	818	1995	
1291	0	932	756	818	1993	
1292	0	932	755	821	1989	
1293	0	928	755	820	1990	
1294	0	928	759	819	1993	
1295	0	936	760	821	1997	
1296	0	938	761	822	1996	
1297	0	937	761	824	1999	
1298	0	933	762	825	1999	
1299	0	931	762	825	1999	
1300	0	933	762	824	1998	
1301	0	936	764	825	2000	
1302	0	938	765	826	1997	
1303	0	938	767	828	1996	
1304	0	936	767	828	1995	
1305	0	936	767	827	1993	
1306	0	937	767	828	1992	
1307	0	939	769	829	1994	
1308	0	938	771	830	1995	
1309	0	938	770	830	1993	
1310	0	938	769	830	1985	
1311	0	938	770	831	1988	
1312	0	939	770	829	1995	
1313	0	940	770	828	1994	
1314	0	940	770	830	1988	
1315	0	941	768	832	1986	
1316	0	943	769	830	1986	
1317	0	943	768	829	1986	
1318	0	944	768	829	1983	
1319	0	948	767	830	1982	
1320	0	947	764	830	1980	
1321	0	946	765	829	1986	
1322	0	947	764	829	1987	
1323	0	952	763	828	1987	
1324	0	951	763	828	1984	
1325	0	950	760	828	1985	
1326	0	952	762	827	1984	
1327	0	954	761	827	1983	
1328	0	955	760	826	1986	
1329	0	954	758	826	1988	
1330	0	953	755	825	1987	
1331	0	953	756	823	1985	
1332	0	956	753	822	1980	
1333	0	958	754	820	1978	
1334	0	961	751	821	1980	
1335	0	962	750	821	1978	
1336	0	965	750	820	1974	
1337	0	968	749	819	1973	
1338	0	971	750	820	1980	
1339	0	975	750	821	1988	
1340	0	978	752	823	1995	
1341	0	980	755	825	1998	
1342	0	981	757	827	1985	
1343	0	982	760	829	1978	
1344	0	985	764	833	1980	
1345	0	983	766	836	1976	
1346	0	983	771	837	1960	
1347	0	982	773	839	1941	
1348	0	980	776	842	1932	
1349	0	979	780	845	1931	
1350	0	977	780	847	1926	
1351	0	975	785	847	1931	
1352	0	974	788	850	1941	
1353	0	970	790	849	1939	
1354	0	969	791	851	1943	
1355	0	968	792	852	1942	
1356	0	966	794	853	1939	
1357	0	962	793	853	1936	
1358	0	960	794	853	1937	
1359	0	958	793	854	1938	
1360	0	955	792	853	1938	
1361	0	954	792	853	1940	
1362	0	951	789	851	1942	
1363	0	947	789	850	1941	
1364	0	945	787	850	1942	
1365	0	944	785	847	1943	
1366	0	942	783	845	1944	
1367	0	943	781	845	1945	
1368	0	941	777	843	1940	
1369	0	942	774	841	1939	
1370	0	940	771	839	1937	
1371	0	939	767	836	1935	
1372	0	939	767	834	1936	
1373	0	937	763	833	1933	
1374	0	936	759	829	1932	
1375	0	935	754	830	1932	
1376	0	934	752	823	1934	
1377	0	934	750	823	1933	
1378	0	932	746	821	1937	
1379	0	928	742	817	1942	
1380	0	927	740	814	1949	
1381	0	929	739	813	1954	
1382	0	928	735	812	1956	
1383	0	926	733	809	1955	
1384	0	928	732	809	1957	
1385	0	928	729	808	1957	
1386	0	928	728	807	1970	
1387	0	928	726	806	1988	
1388	0	929	726	806	1998	
1389	0	930	723	805	2010	
1390	0	933	723	804	2015	
1391	0	935	723	803	2019	
1392	0	935	721	803	2025	
1393	0	935	720	801	2036	
1394	0	938	719	801	2047	
1395	0	937	714	801	2062	
1396	0	943	719	803	2068	
1397	0	946	719	802	2072	
1398	0	953	723	809	2078	
1399	0	954	724	812	2081	
1400	0	954	727	814	2086	
1401	0	956	733	817	2093	
1402	0	959	736	821	2097	
1403	0	963	742	824	2103	
1404	0	966	747	830	2112	
1405	0	965	751	835	2115	
1406	0	965	758	841	2118	
1407	0	966	763	846	2122	
1408	0	967	769	850	2125	
1409	0	969	772	852	2128	
1410	0	971	776	856	2128	
1411	0	971	777	861	2127	
1412	0	966	777	859	2128	
1413	0	965	777	858	2129	
1414	0	968	778	859	2130	
1415	0	967	776	859	2131	
1416	0	966	772	856	2130	
1417	0	965	767	855	2132	
1418	0	964	762	853	2131	
1419	0	961	756	849	2129	
1420	0	960	750	846	2127	
1421	0	962	746	842	2125	
1422	0	960	739	837	2126	
1423	0	959	735	835	2127	
1424	0	955	729	831	2125	
1425	0	952	726	827	2122	
1426	0	949	722	823	2121	
1427	0	947	717	821	2119	
1428	0	944	715	820	2117	
1429	0	942	712	819	2117	
1430	0	940	710	817	2120	
1431	0	939	708	814	2120	
1432	0	938	706	812	2118	
1433	0	935	704	809	2117	
1434	0	933	700	808	2114	
1435	0	934	698	807	2113	
1436	0	934	697	807	2113	
1437	0	939	695	808	2115	
1438	0	933	695	808	2113	
1439	0	930	694	811	2111	
1440	0	931	696	809	2108	
1441	0	931	697	812	2109	
1442	0	930	698	814	2113	
1443	0	927	699	816	2114	
1444	0	925	703	818	2110	
1445	0	924	708	820	2106	
1446	0	923	713	823	2107	
1447	0	920	716	824	2105	
1448	0	918	719	828	2100	
1449	0	916	722	832	2098	
1450	0	915	729	835	2096	
1451	0	915	732	838	2099	
1452	0	914	735	840	2107	
1453	0	910	738	839	2109	
1454	0	908	739	842	2105	
1455	0	907	742	843	2103	
1456	0	904	742	842	2099	
1457	0	900	743	842	2090	
1458	0	899	743	842	2087	
1459	0	898	739	843	2089	
1460	0	896	739	838	2085	
1461	0	896	735	836	2084	
1462	0	894	731	833	2086	
1463	0	892	728	830	2085	
1464	0	890	723	827	2080	
1465	0	886	717	824	2070	
1466	0	883	713	820	2075	
1467	0	880	706	817	2081	
1468	0	879	700	814	2076	
1469	0	877	696	808	2072	
1470	0	877	693	806	2074	
1471	0	876	688	805	2078	
1472	0	872	683	804	2077	
1473	0	870	683	801	2075	
1474	0	873	681	802	2084	
1475	0	874	679	802	2086	
1476	0	873	678	802	2078	
1477	0	870	677	802	2080	
1478	0	868	677	802	2083	
1479	0	869	677	803	2086	
1480	0	868	677	802	2085	
1481	0	867	679	803	2086	
1482	0	866	680	804	2091	
1483	0	863	680	804	2090	
1484	0	860	680	804	2094	
1485	0	856	683	805	2098	
1486	0	854	684	806	2099	
1487	0	852	684	807	2093	
1488	0	846	683	806	2082	
1489	0	843	683	805	2078	
1490	0	842	684	804	2081	
1491	0	840	686	805	2081	
1492	0	839	684	805	2073	
1493	0	838	685	805	2079	
1494	0	836	683	803	2087	
1495	0	833	683	801	2083	
1496	0	830	683	800	2082	
1497	0	829	682	800	2081	
1498	0	829	683	801	2076	
1499	0	830	683	802	2084	
1500	0	833	685	804	2089	
1501	0	838	685	805	2084	
1502	0	840	685	807	2076	
1503	0	841	683	805	2075	
1504	0	843	680	804	2084	
1505	0	842	681	805	2086	
1506	0	842	680	805	2087	
1507	0	844	681	806	2086	
1508	0	845	681	806	2080	
1509	0	847	681	808	2077	
1510	0	848	683	810	2078	
1511	0	849	683	811	2080	
1512	0	848	685	812	2080	
1513	0	850	685	814	2073	
1514	0	850	685	815	2067	
1515	0	852	687	815	2059	
1516	0	852	688	814	2062	
1517	0	849	688	816	2071	
1518	0	849	688	817	2077	
1519	0	847	686	817	2079	
1520	0	847	687	817	2080	
1521	0	847	687	815	2085	
1522	0	848	686	817	2089	
1523	0	847	684	815	2081	
1524	0	846	684	816	2084	
1525	0	846	682	816	2094	
1526	0	845	682	817	2090	
1527	0	845	681	815	2090	
1528	0	845	678	816	2092	
1529	0	846	677	816	2088	
1530	0	845	674	813	2084	
1531	0	845	670	811	2076	
1532	0	844	666	807	2070	
1533	0	843	663	805	2070	
1534	0	843	659	804	2079	
1535	0	840	656	802	2081	
1536	0	840	654	801	2081	
1537	0	838	653	800	2071	
1538	0	835	653	801	2075	
1539	0	834	653	801	2078	
1540	0	834	655	802	2073	
1541	0	834	656	805	2070	
1542	0	834	657	807	2070	
1543	0	833	658	807	2071	
1544	0	834	657	806	2072	
1545	0	833	657	805	2064	
1546	0	832	657	805	2062	
1547	0	828	656	805	2060	
1548	0	824	656	805	2051	
1549	0	823	656	804	2052	
1550	0	822	657	805	2050	
1551	0	824	659	806	2053	
1552	0	820	661	808	2059	
1553	0	821	662	810	2058	
1554	0	822	663	812	2064	
1555	0	824	664	813	2066	
1556	0	826	666	814	2060	
1557	0	824	667	815	2048	
1558	0	824	667	813	2045	
1559	0	825	666	812	2056	
1560	0	825	665	814	2057	
1561	0	828	665	813	2060	
1562	0	826	664	813	2061	
1563	0	823	661	812	2052	
1564	0	823	659	810	2041	
1565	0	823	658	812	2031	
1566	0	822	659	809	2016	
1567	0	822	658	809	2014	
1568	0	820	656	808	2026	
1569	0	820	654	807	2040	
1570	0	821	653	806	2051	
1571	0	823	652	807	2055	
1572	0	824	651	805	2044	
1573	0	824	648	804	2047	
1574	0	823	647	804	2055	
1575	0	821	646	805	2049	
1576	0	819	646	803	2046	
1577	0	819	646	801	2035	
1578	0	818	647	802	2033	
1579	0	820	647	805	2030	
1580	0	818	647	804	2028	
1581	0	818	647	805	2014	
1582	0	817	648	805	2016	
1583	0	817	647	806	2022	
1584	0	817	647	805	2027	
1585	0	816	648	805	2025	
1586	0	816	649	807	2017	
1587	0	815	650	807	2007	
1588	0	815	649	807	2011	
1589	0	816	650	809	2014	
1590	0	817	651	809	2005	
1591	0	815	652	809	2000	
1592	0	814	653	810	1998	
1593	0	812	654	809	1993	
1594	0	812	655	811	1990	
1595	0	814	656	813	1988	
1596	0	813	658	815	1985	
1597	0	814	660	816	1980	
1598	0	812	660	816	1975	
1599	0	813	660	817	1966	
1600	0	812	661	816	1967	
1601	0	811	660	816	1973	
1602	0	811	659	815	1977	
1603	0	811	659	814	1979	
1604	0	812	658	814	1981	
1605	0	811	657	813	1987	
1606	0	811	655	812	1995	
1607	0	813	655	812	2004	
1608	0	810	653	811	2008	
1609	0	810	652	812	2013	
1610	0	809	652	811	2011	
1611	0	810	652	813	2017	
1612	0	810	653	813	2022	
1613	0	809	653	812	2026	
1614	0	809	654	812	2036	
1615	0	808	652	811	2049	
1616	0	806	651	808	2058	
1617	0	805	649	808	2068	
1618	0	805	647	808	2076	
1619	0	805	645	806	2073	
1620	0	806	643	805	2073	
1621	0	807	642	804	2079	
1622	0	808	640	803	2079	
1623	0	808	638	801	2083	
1624	0	806	638	800	2076	
1625	0	804	636	800	2069	
1626	0	805	634	801	2072	
1627	0	806	634	799	2080	
1628	0	806	633	799	2084	
1629	0	804	632	799	2083	
1630	0	804	632	798	2079	
1631	0	805	632	798	2080	
1632	0	805	633	797	2077	
1633	0	805	632	798	2079	
1634	0	805	631	799	2092	
1635	0	808	632	799	2095	
1636	0	810	635	801	2090	
1637	0	810	638	801	2084	
1638	0	809	636	803	2077	
1639	0	807	638	803	2064	
1640	0	808	639	804	2049	
1641	0	810	641	806	2035	
1642	0	809	640	806	2011	
1643	0	807	643	806	1975	
1644	0	809	645	806	1932	
1645	0	809	644	806	1880	
1646	0	809	646	809	1822	
1647	0	810	647	808	1795	
1648	0	811	648	808	1793	
1649	0	811	646	808	1811	
1650	0	813	647	807	1839	
1651	0	814	649	809	1857	
1652	0	815	647	810	1859	
1653	0	814	646	809	1870	
1654	0	814	646	807	1911	
1655	0	815	647	808	1997	
1656	0	815	647	809	2113	
1657	0	817	647	810	2257	
1658	0	818	646	807	2392	
1659	0	819	646	809	2465	
1660	0	819	645	809	2483	
1661	0	822	644	810	2460	
1662	0	822	644	809	2417	
1663	0	823	642	808	2363	
1664	0	825	641	808	2320	
1665	0	824	639	805	2274	
1666	0	822	637	805	2231	
1667	0	824	633	804	2192	
1668	0	826	630	802	2150	
1669	0	826	629	802	2110	
1670	0	825	627	800	2075	
1671	0	826	626	800	2054	
1672	0	827	624	798	2042	
1673	0	827	623	797	2035	
1674	0	828	622	799	2035	
1675	0	823	621	796	2038	
1676	0	822	622	796	2036	
1677	0	822	623	797	2031	
1678	0	821	624	799	2028	
1679	0	821	626	800	2030	
1680	0	819	627	800	2036	
1681	0	817	629	801	2032	
1682	0	817	630	803	2030	
1683	0	814	631	803	2029	
1684	0	813	633	804	2024	
1685	0	811	636	804	2021	
1686	0	811	637	805	2021	
1687	0	808	638	805	2016	
1688	0	804	640	806	2015	
1689	0	804	640	806	2015	
1690	0	802	641	807	2013	
1691	0	802	643	808	2013	
1692	0	801	644	809	2012	
1693	0	800	645	806	2012	
1694	0	800	648	806	2013	
1695	0	801	650	807	2007	
1696	0	802	651	809	2008	
1697	0	802	653	808	2007	
1698	0	801	654	809	2006	
1699	0	799	655	809	2005	
1700	0	798	659	809	2006	
1701	0	796	660	810	2009	
1702	0	796	664	810	2011	
1703	0	792	665	810	2010	
1704	0	788	666	808	2009	
1705	0	787	670	808	2008	
1706	0	784	671	810	2002	
1707	0	782	672	809	2002	
1708	0	781	673	805	1998	
1709	0	780	674	804	1991	
1710	0	780	675	803	1997	
1711	0	783	675	804	2001	
1712	0	786	673	803	2003	
1713	0	790	670	800	1994	
1714	0	791	667	797	1988	
1715	0	794	664	795	1978	
1716	0	800	661	795	1989	
1717	0	803	656	795	1991	
1718	0	837	622	796	1986	
1719	0	939	568	780	1989	
1720	0	1003	542	758	1988	
1721	0	939	532	733	1987	
1722	0	829	527	715	1988	
1723	0	774	531	717	1986	
1724	0	789	548	726	1977	
1725	0	805	565	734	1971	
1726	0	801	578	743	1970	
1727	0	793	591	752	1969	
1728	0	799	604	760	1970	
1729	0	809	612	768	1970	
1730	0	812	617	776	1968	
1731	0	814	618	783	1968	
1732	0	821	618	786	1973	
1733	0	827	616	786	1972	
1734	0	837	612	784	1965	
1735	0	840	609	781	1967	
1736	0	841	607	779	1969	
1737	0	842	604	778	1965	
1738	0	843	603	777	1964	
1739	0	847	601	777	1965	
1740	0	847	598	776	1960	
1741	0	848	596	776	1953	
1742	0	847	596	774	1947	
1743	0	849	595	776	1952	
1744	0	847	595	777	1955	
1745	0	846	597	778	1955	
1746	0	843	600	778	1949	
1747	0	842	600	778	1948	
1748	0	842	602	780	1948	
1749	0	842	605	781	1951	
1750	0	838	605	780	1948	
1751	0	834	605	780	1945	
1752	0	830	605	779	1941	
1753	0	829	605	778	1933	
1754	0	829	604	776	1937	
1755	0	829	602	776	1940	
1756	0	829	602	777	1940	
1757	0	830	601	776	1936	
1758	0	833	600	776	1927	
1759	0	833	599	777	1928	
1760	0	828	600	776	1929	
1761	0	824	603	776	1929	
1762	0	819	603	777	1925	
1763	0	818	605	777	1919	
1764	0	817	607	777	1913	
1765	0	815	609	780	1919	
1766	0	812	611	782	1917	
1767	0	812	614	783	1924	
1768	0	809	616	784	1917	
1769	0	809	620	787	1904	
1770	0	806	623	787	1907	
1771	0	804	625	787	1904	
1772	0	804	627	789	1905	
1773	0	803	630	790	1911	
1774	0	802	633	791	1925	
1775	0	801	635	792	1926	
1776	0	800	637	794	1925	
1777	0	800	639	794	1927	
1778	0	799	640	795	1922	
1779	0	797	642	796	1916	
1780	0	795	644	797	1917	
1781	0	796	645	798	1917	
1782	0	795	647	799	1924	
1783	0	795	649	798	1935	
1784	0	794	651	798	1936	
1785	0	793	651	800	1939	
1786	0	793	652	801	1946	
1787	0	794	654	800	1955	
1788	0	795	655	800	1962	
1789	0	793	654	799	1964	
1790	0	793	654	800	1973	
1791	0	792	654	802	1987	
1792	0	791	655	801	1997	
1793	0	790	653	800	2000	
1794	0	790	655	799	2011	
1795	0	790	655	799	2019	
1796	0	790	654	801	2024	
1797	0	788	656	800	2031	
1798	0	788	656	799	2042	
1799	0	787	655	798	2048	
1800	0	787	656	798	2051	
1801	0	788	656	797	2062	
1802	0	789	655	798	2073	
1803	0	791	654	798	2082	
1804	0	792	655	799	2070	
1805	0	793	653	797	2051	
1806	0	794	653	798	2054	
1807	0	792	652	798	2075	
1808	0	794	652	798	2096	
1809	0	794	652	797	2104	
1810	0	796	651	796	2107	
1811	0	798	651	795	2099	
1812	0	795	652	796	2099	
1813	0	796	653	798	2096	
1814	0	796	655	799	2114	
1815	0	799	656	800	2118	
1816	0	801	656	803	2120	
1817	0	801	657	801	2114	
1818	0	801	657	801	2117	
1819	0	800	658	801	2118	
1820	0	799	657	802	2119	
1821	0	799	657	802	2123	
1822	0	797	660	805	2125	
1823	0	802	660	804	2123	
1824	0	801	661	804	2118	
1825	0	801	660	806	2119	
1826	0	803	661	807	2121	
1827	0	802	660	805	2114	
1828	0	804	660	805	2117	
1829	0	804	660	807	2119	
1830	0	805	658	806	2110	
1831	0	805	657	805	2105	
1832	0	806	656	805	2108	
1833	0	808	655	805	2113	
1834	0	807	654	805	2125	
1835	0	808	652	802	2132	
1836	0	807	651	802	2135	
1837	0	807	650	801	2134	
1838	0	808	651	799	2128	
1839	0	808	647	796	2121	
1840	0	809	644	797	2116	
1841	0	811	644	797	2114	
1842	0	812	642	797	2112	
1843	0	814	641	796	2111	
1844	0	813	641	796	2113	
1845	0	815	639	796	2110	
1846	0	814	638	795	2103	
1847	0	814	638	793	2103	
1848	0	814	635	793	2099	
1849	0	813	634	792	2102	
1850	0	813	633	792	2099	
1851	0	811	631	792	2092	
1852	0	810	629	790	2090	
1853	0	811	628	789	2089	
1854	0	809	626	787	2090	
1855	0	810	626	786	2088	
1856	0	811	625	786	2090	
1857	0	811	622	783	2091	
1858	0	813	621	782	2097	
1859	0	812	618	781	2096	
1860	0	812	618	780	2091	
1861	0	813	618	782	2086	
1862	0	813	617	782	2081	
1863	0	815	618	782	2077	
1864	0	816	618	785	2077	
1865	0	818	622	787	2074	
1866	0	820	624	790	2074	
1867	0	822	627	792	2071	
1868	0	826	630	794	2072	
1869	0	826	632	797	2073	
1870	0	827	634	800	2075	
1871	0	828	638	801	2077	
1872	0	829	640	804	2075	
1873	0	830	644	806	2072	
1874	0	831	643	808	2071	
1875	0	832	646	811	2072	
1876	0	835	648	811	2073	
1877	0	837	651	813	2072	
1878	0	838	652	815	2075	
1879	0	839	653	815	2074	
1880	0	841	655	815	2073	
1881	0	843	656	817	2071	
1882	0	844	656	818	2069	
1883	0	844	656	819	2073	
1884	0	843	656	819	2073	
1885	0	845	657	819	2076	
1886	0	846	658	820	2079	
1887	0	845	659	820	2076	
1888	0	846	656	819	2066	
1889	0	846	658	820	2063	
1890	0	846	657	818	2060	
1891	0	847	656	819	2066	
1892	0	848	655	819	2071	
1893	0	850	652	819	2078	
1894	0	850	652	817	2084	
1895	0	848	651	815	2082	
1896	0	846	648	814	2087	
1897	0	845	647	811	2084	
1898	0	846	643	811	2081	
1899	0	844	645	809	2075	
1900	0	845	644	808	2064	
1901	0	843	642	807	2070	
1902	0	840	643	808	2078	
1903	0	842	641	806	2077	
1904	0	842	642	807	2073	
1905	0	839	644	804	2071	
1906	0	838	641	805	2067	
1907	0	836	640	805	2069	
1908	0	835	642	803	2076	
1909	0	834	643	801	2081	
1910	0	834	642	802	2083	
1911	0	833	643	804	2079	
1912	0	831	645	803	2080	
1913	0	830	646	801	2078	
1914	0	831	645	802	2078	
1915	0	829	646	802	2078	
1916	0	825	645	801	2079	
1917	0	824	648	800	2078	
1918	0	824	647	801	2078	
1919	0	822	647	802	2084	
1920	0	823	650	799	2084	
1921	0	824	651	802	2084	
1922	0	821	650	802	2084	
1923	0	820	655	801	2078	
1924	0	817	651	803	2075	
1925	0	816	651	801	2074	
1926	0	816	653	801	2075	
1927	0	815	656	802	2077	
1928	0	816	658	802	2077	
1929	0	815	657	803	2082	
1930	0	815	659	802	2084	
1931	0	818	662	802	2084	
1932	0	817	664	801	2079	
1933	0	817	667	802	2083	
1934	0	813	667	804	2085	
1935	0	813	669	803	2083	
1936	0	812	671	802	2082	
1937	0	811	672	803	2088	
1938	0	813	674	801	2086	
1939	0	812	673	800	2083	
1940	0	811	672	802	2078	
1941	0	812	672	801	2073	
1942	0	813	672	801	2071	
1943	0	814	671	800	2062	
1944	0	812	671	799	2046	
1945	0	813	671	797	2054	
1946	0	812	670	795	2058	
1947	0	811	666	794	2057	
1948	0	813	664	792	2052	
1949	0	814	664	791	2043	
1950	0	818	664	789	2040	
1951	0	818	663	787	2038	
1952	0	817	661	786	2037	
1953	0	817	660	785	2039	
1954	0	818	663	785	2040	
1955	0	820	664	781	2039	
1956	0	823	665	781	2035	
1957	0	826	666	781	2031	
1958	0	830	668	782	2036	
1959	0	832	670	783	2034	
1960	0	831	670	783	2028	
1961	0	827	667	784	2032	
1962	0	823	671	783	2033	
1963	0	822	673	779	2029	
1964	0	826	671	780	2036	
1965	0	829	671	779	2034	
1966	0	830	673	777	2031	
1967	0	829	674	775	2030	
1968	0	826	673	777	2031	
1969	0	821	674	776	2032	
1970	0	822	677	777	2038	
1971	0	822	680	779	2042	
1972	0	824	679	782	2046	
1973	0	821	681	781	2048	
1974	0	818	681	780	2052	
1975	0	817	685	781	2052	
1976	0	819	692	781	2046	
1977	0	820	688	785	2050	
1978	0	818	691	788	2070	
1979	0	818	698	789	2075	
1980	0	822	708	792	2083	
1981	0	822	713	797	2091	
1982	0	819	718	803	2093	
1983	0	815	726	808	2094	
1984	0	816	735	812	2094	
1985	0	822	743	817	2100	
1986	0	832	750	821	2106	
1987	0	840	757	824	2100	
1988	0	846	764	825	2100	
1989	0	854	768	827	2100	
1990	0	862	770	829	2101	
1991	0	866	770	829	2104	
1992	0	866	774	828	2103	
1993	0	872	776	827	2099	
1994	0	882	780	827	2100	
1995	0	889	822	832	2096	
1996	0	880	800	832	2104	
1997	0	882	752	826	2107	
1998	0	907	736	815	2109	
1999	0	940	733	803	2105	
2000	0	969	732	798	2110	
2001	0	980	719	793	2114	
2002	0	974	705	784	2115	
2003	0	959	692	779	2098	
2004	0	941	679	780	2087	
2005	0	935	669	783	2098	
2006	0	940	663	782	2099	
2007	0	954	658	780	2098	
2008	0	964	654	776	2090	
2009	0	965	649	773	2083	
2010	0	960	647	772	2067	
2011	0	950	647	771	2038	
2012	0	942	647	772	1990	
2013	0	939	648	776	1898	
2014	0	939	653	781	1806	
2015	0	936	656	782	1762	
2016	0	936	660	786	1774	
2017	0	934	664	789	1814	
2018	0	930	669	793	1861	
2019	0	925	673	797	1888	
2020	0	922	679	802	1892	
2021	0	922	684	805	1890	
2022	0	921	689	809	1909	
2023	0	922	695	812	1963	
2024	0	916	698	815	2067	
2025	0	911	703	818	2197	
2026	0	911	704	821	2356	
2027	0	913	708	825	2471	
2028	0	914	711	826	2521	
2029	0	913	712	828	2507	
2030	0	910	717	829	2465	
2031	0	909	718	830	2415	
2032	0	909	719	830	2355	
2033	0	905	721	831	2299	
2034	0	900	720	831	2260	
2035	0	899	722	831	2219	
2036	0	900	723	829	2182	
2037	0	901	724	829	2151	
2038	0	900	722	829	2118	
2039	0	899	723	828	2076	
2040	0	894	722	828	2038	
2041	0	890	721	828	2020	
2042	0	894	722	828	2008	
2043	0	898	723	830	2021	
2044	0	900	719	825	2043	
2045	0	905	718	824	2069	
2046	0	907	715	825	2089	
2047	0	912	708	827	2093	
2048	0	917	704	825	2055	
2049	0	917	700	822	1999	
2050	0	917	695	820	1969	
2051	0	918	692	826	1958	
2052	0	919	688	834	1964	
2053	0	920	686	840	1978	
2054	0	921	685	840	2001	
2055	0	929	685	825	2020	
2056	0	941	685	808	2026	
2057	0	951	689	796	2014	
2058	0	956	688	791	2011	
2059	0	957	689	795	2015	
2060	0	958	693	797	2018	
2061	0	957	697	804	2018	
2062	0	957	700	804	2020	
2063	0	961	697	792	2028	
2064	0	970	690	781	2026	
2065	0	978	691	786	2023	
2066	0	979	691	792	2030	
2067	0	974	697	791	2036	
2068	0	970	703	793	2031	
2069	0	968	707	804	2015	
2070	0	967	710	810	1991	
2071	0	964	716	817	1973	
2072	0	959	720	819	1966	
2073	0	955	727	822	1973	
2074	0	953	733	827	1992	
2075	0	950	739	829	1992	
2076	0	946	743	832	1988	
2077	0	942	746	834	1989	
2078	0	936	750	836	1994	
2079	0	933	751	838	1997	
2080	0	932	756	840	1997	
2081	0	933	759	842	1996	
2082	0	933	762	844	1992	
2083	0	932	763	847	1986	
2084	0	929	765	848	1969	
2085	0	929	769	850	1976	
2086	0	930	771	851	1977	
2087	0	933	772	850	1975	
2088	0	937	775	850	1975	
2089	0	939	773	852	1970	
2090	0	940	772	855	1962	
2091	0	940	772	855	1958	
2092	0	942	772	855	1970	
2093	0	944	774	855	1976	
2094	0	944	773	855	1971	
2095	0	946	775	855	1970	
2096	0	945	775	854	1970	
2097	0	947	774	855	1969	
2098	0	950	777	856	1968	
2099	0	949	775	855	1968	
2100	0	949	776	853	1969	
2101	0	953	779	857	1969	
2102	0	953	776	857	1964	
2103	0	952	781	855	1958	
2104	0	951	781	856	1956	
2105	0	949	781	855	1959	
2106	0	949	781	858	1964	
2107	0	948	780	856	1965	
2108	0	950	782	854	1958	
2109	0	949	781	854	1953	
2110	0	947	780	852	1956	
2111	0	947	781	853	1955	
2112	0	943	780	851	1952	
2113	0	944	780	849	1953	
2114	0	943	778	849	1950	
2115	0	944	778	849	1944	
2116	0	941	779	847	1947	
2117	0	940	781	848	1948	
2118	0	940	782	844	1947	
2119	0	940	782	849	1946	
2120	0	936	783	850	1942	
2121	0	934	783	850	1942	
2122	0	935	784	844	1937	
2123	0	937	788	845	1932	
2124	0	938	787	847	1927	
2125	0	937	789	853	1925	
2126	0	937	788	856	1923	
2127	0	937	790	855	1920	
2128	0	940	789	857	1918	
2129	0	941	789	857	1918	
2130	0	941	789	853	1914	
2131	0	944	789	855	1916	
2132	0	947	789	854	1915	
2133	0	953	790	851	1915	
2134	0	957	786	855	1911	
2135	0	958	785	853	1915	
2136	0	960	781	856	1921	
2137	0	961	781	849	1922	
2138	0	962	784	839	1921	
2139	0	964	780	837	1915	
2140	0	966	782	844	1907	
2141	0	970	783	844	1916	
2142	0	971	776	845	1936	
2143	0	964	769	834	1956	
2144	0	957	769	826	1962	
2145	0	961	769	827	1944	
2146	0	976	769	834	1902	
2147	0	985	768	838	1872	
2148	0	985	766	838	1872	
2149	0	977	763	834	1897	
2150	0	969	763	834	1919	
2151	0	967	758	824	1915	
2152	0	969	761	823	1921	
2153	0	973	759	821	1942	
2154	0	967	757	817	1967	
2155	0	959	756	818	1987	
2156	0	958	755	814	2000	
2157	0	961	755	816	2010	
2158	0	961	757	815	2033	
2159	0	956	759	822	2057	
2160	0	953	762	823	2060	
2161	0	951	762	825	2045	
2162	0	948	764	828	2022	
2163	0	947	766	838	2006	
2164	0	942	767	841	1993	
2165	0	940	769	842	1992	
2166	0	937	767	843	2012	
2167	0	936	765	836	2049	
2168	0	934	768	835	2071	
2169	0	932	772	834	2083	
2170	0	928	771	843	2094	
2171	0	927	773	843	2097	
2172	0	926	772	839	2101	
2173	0	928	772	838	2112	
2174	0	925	771	839	2115	
2175	0	922	772	842	2125	
2176	0	922	772	843	2133	
2177	0	921	773	845	2135	
2178	0	920	774	845	2149	
2179	0	922	773	847	2161	
2180	0	919	774	847	2161	
2181	0	920	773	845	2155	
2182	0	923	774	847	2144	
2183	0	922	774	849	2128	
2184	0	920	774	849	2122	
2185	0	917	775	848	2129	
2186	0	916	776	851	2126	
2187	0	915	774	850	2111	
2188	0	915	776	852	2114	
2189	0	914	778	852	2136	
2190	0	916	778	849	2147	
2191	0	918	776	848	2152	
2192	0	916	774	848	2150	
2193	0	919	773	850	2131	
2194	0	918	773	851	2112	
2195	0	918	770	850	2109	
2196	0	923	768	852	2119	
2197	0	927	768	853	2131	
2198	0	930	768	853	2138	
2199	0	929	767	851	2138	
2200	0	929	764	849	2137	
2201	0	930	760	847	2135	
2202	0	930	759	845	2134	
2203	0	930	758	844	2136	
2204	0	930	757	844	2140	
2205	0	929	756	842	2141	
2206	0	926	754	841	2140	
2207	0	926	754	842	2137	
2208	0	925	754	842	2141	
2209	0	921	756	843	2142	
2210	0	920	758	844	2138	
2211	0	922	759	844	2129	
2212	0	917	759	842	2114	
2213	0	916	760	842	2109	
2214	0	917	761	841	2111	
2215	0	916	761	842	2113	
2216	0	914	760	842	2116	
2217	0	916	759	843	2113	
2218	0	915	760	843	2109	
2219	0	913	761	843	2108	
2220	0	911	762	843	2105	
2221	0	911	762	843	2105	
2222	0	910	763	844	2101	
2223	0	911	764	846	2103	
2224	0	909	764	843	2106	
2225	0	907	765	844	2102	
2226	0	905	765	844	2096	
2227	0	907	766	844	2088	
2228	0	908	767	841	2084	
2229	0	907	771	839	2079	
2230	0	901	772	837	2073	
2231	0	902	773	839	2074	
2232	0	906	773	842	2078	
2233	0	910	773	844	2080	
2234	0	913	773	844	2082	
2235	0	911	773	842	2079	
2236	0	911	774	839	2076	
2237	0	913	774	840	2074	
2238	0	916	772	840	2081	
2239	0	919	771	840	2084	
2240	0	921	770	839	2083	
2241	0	922	768	838	2081	
2242	0	923	767	837	2071	
2243	0	923	769	834	2062	
2244	0	922	770	834	2063	
2245	0	920	767	834	2069	
2246	0	924	767	833	2078	
2247	0	929	767	832	2078	
2248	0	932	765	832	2077	
2249	0	933	764	832	2074	
2250	0	933	763	832	2072	
2251	0	933	764	830	2074	
2252	0	932	765	829	2069	
2253	0	932	765	828	2068	
2254	0	932	766	830	2078	
2255	0	929	765	828	2083	
2256	0	928	765	827	2085	
2257	0	927	766	827	2086	
2258	0	926	767	830	2083	
2259	0	927	767	829	2078	
2260	0	926	767	827	2059	
2261	0	924	768	827	2057	
2262	0	924	769	828	2062	
2263	0	924	770	829	2067	
2264	0	922	770	829	2069	
2265	0	921	770	830	2073	
2266	0	922	772	830	2077	
2267	0	922	772	831	2077	
2268	0	923	773	832	2078	
2269	0	921	774	831	2077	
2270	0	920	775	832	2076	
2271	0	919	776	832	2071	
2272	0	921	776	832	2067	
2273	0	921	777	832	2075	
2274	0	924	779	832	2079	
2275	0	924	777	832	2077	
2276	0	927	776	832	2077	
2277	0	928	772	832	2072	
2278	0	932	771	829	2075	
2279	0	932	769	830	2079	
2280	0	934	767	827	2073	
2281	0	934	767	826	2072	
2282	0	933	767	826	2072	
2283	0	933	768	825	2078	
2284	0	932	767	823	2075	
2285	0	931	767	822	2072	
2286	0	930	767	822	2063	
2287	0	929	767	822	2068	
2288	0	929	767	822	2077	
2289	0	929	765	823	2079	
2290	0	929	766	824	2081	
2291	0	929	765	822	2081	
2292	0	930	764	823	2083	
2293	0	929	764	822	2082	
2294	0	930	763	821	2076	
2295	0	929	763	820	2066	
2296	0	929	763	819	2072	
2297	0	930	764	821	2079	
2298	0	930	764	821	2077	
2299	0	929	764	820	2082	
2300	0	930	763	821	2083	
2301	0	930	763	823	2087	
2302	0	929	762	823	2085	
2303	0	928	762	824	2083	
2304	0	928	763	824	2083	
2305	0	927	764	825	2083	
2306	0	926	765	825	2083	
2307	0	924	765	824	2082	
2308	0	923	766	826	2082	
2309	0	922	765	825	2080	
2310	0	923	765	825	2078	
2311	0	923	766	826	2078	
2312	0	923	767	825	2078	
2313	0	923	768	825	2080	
2314	0	920	769	825	2079	
2315	0	918	771	826	2079	
2316	0	917	773	827	2082	
2317	0	918	773	829	2081	
2318	0	917	773	830	2079	
2319	0	920	775	831	2078	
2320	0	920	772	831	2075	
2321	0	920	772	831	2074	
2322	0	921	773	830	2070	
2323	0	922	773	830	2070	
2324	0	923	772	829	2068	
2325	0	924	771	830	2057	
2326	0	923	771	830	2051	
2327	0	923	770	829	2047	
2328	0	923	769	830	2042	
2329	0	922	767	827	2036	
2330	0	923	767	827	2031	
2331	0	924	766	826	2025	
2332	0	926	765	824	2018	
2333	0	928	764	824	2022	
2334	0	929	764	824	2032	
2335	0	928	762	822	2035	
2336	0	928	761	821	2032	
2337	0	928	761	821	2028	
2338	0	928	761	820	2025	
2339	0	927	761	819	2020	
2340	0	928	761	819	2012	
2341	0	927	762	819	2012	
2342	0	925	763	818	2015	
2343	0	926	763	820	2021	
2344	0	925	764	819	2024	
2345	0	926	764	820	2022	
2346	0	925	764	820	2025	
2347	0	926	764	820	2021	
2348	0	926	763	822	2018	
2349	0	925	762	820	2015	
2350	0	925	761	820	2018	
2351	0	925	761	821	2019	
2352	0	924	761	821	2021	
2353	0	923	761	823	2024	
2354	0	923	761	822	2029	
2355	0	922	760	822	2031	
2356	0	922	762	823	2036	
2357	0	921	761	819	2042	
2358	0	922	763	820	2045	
2359	0	921	763	821	2052	
2360	0	923	764	821	2058	
2361	0	922	764	821	2065	
2362	0	923	764	820	2076	
2363	0	922	766	821	2078	
2364	0	924	767	820	2083	
2365	0	924	765	820	2089	
2366	0	924	765	819	2096	
2367	0	926	765	819	2098	
2368	0	925	765	819	2099	
2369	0	927	765	817	2098	
2370	0	924	765	817	2096	
2371	0	924	765	817	2099	
2372	0	926	764	816	2099	
2373	0	927	763	817	2100	
2374	0	927	763	814	2098	
2375	0	927	764	814	2098	
2376	0	927	764	813	2100	
2377	0	927	764	812	2097	
2378	0	926	764	812	2098	
2379	0	928	764	811	2097	
2380	0	929	763	810	2096	
2381	0	929	763	811	2096	
2382	0	929	762	808	2100	
2383	0	930	763	809	2098	
2384	0	931	762	809	2089	
2385	0	933	762	808	2086	
2386	0	931	763	810	2089	
2387	0	929	763	809	2082	
2388	0	930	763	810	2067	
2389	0	927	767	809	2061	
2390	0	927	766	808	2053	
2391	0	926	766	811	2041	
2392	0	927	766	810	2012	
2393	0	927	767	811	1972	
2394	0	927	767	811	1922	
2395	0	927	767	812	1863	
2396	0	925	767	812	1823	
2397	0	925	769	811	1814	
2398	0	926	770	813	1837	
2399	0	926	771	812	1869	
2400	0	927	771	814	1898	
2401	0	927	771	814	1900	
2402	0	927	770	813	1894	
2403	0	927	771	814	1916	
2404	0	927	771	813	1976	
2405	0	928	771	814	2083	
2406	0	928	770	815	2222	
2407	0	930	771	813	2372	
2408	0	931	768	814	2497	
2409	0	930	770	813	2546	
2410	0	931	770	813	2526	
2411	0	932	770	813	2480	
2412	0	932	769	811	2421	
2413	0	931	769	812	2350	
2414	0	933	769	810	2283	
2415	0	932	768	809	2225	
2416	0	932	769	808	2175	
2417	0	933	768	808	2130	
2418	0	934	768	809	2096	
2419	0	934	768	808	2069	
2420	0	935	768	808	2053	
2421	0	938	767	807	2044	
2422	0	937	767	808	2036	
2423	0	937	767	809	2035	
2424	0	938	766	807	2032	
2425	0	938	766	807	2032	
2426	0	938	766	806	2032	
2427	0	937	765	807	2034	
2428	0	937	766	808	2032	
2429	0	937	766	807	2031	
2430	0	937	765	809	2031	
2431	0	937	768	809	2036	
2432	0	935	768	808	2031	
2433	0	934	768	810	2031	
2434	0	932	769	809	2028	
2435	0	930	770	810	2026	
2436	0	930	770	809	2021	
2437	0	930	770	811	2020	
2438	0	929	770	813	2020	
2439	0	929	770	813	2017	
2440	0	930	770	813	2016	
2441	0	930	771	812	2023	
2442	0	930	772	813	2024	
2443	0	929	771	814	2015	
2444	0	931	772	814	2025	
2445	0	930	771	814	2025	
2446	0	929	771	815	2021	
2447	0	930	771	816	2019	
2448	0	932	772	817	2021	
2449	0	931	773	816	2019	
2450	0	928	773	815	2019	
2451	0	929	772	815	2018	
2452	0	927	773	816	2020	
2453	0	928	774	816	2019	
2454	0	928	773	816	2017	
2455	0	930	772	816	2015	
2456	0	929	772	815	2011	
2457	0	929	772	816	2014	
2458	0	929	773	816	2013	
2459	0	930	771	815	2006	
2460	0	931	772	816	2006	
2461	0	930	773	816	2012	
2462	0	930	772	816	2012	
2463	0	931	771	816	2009	
2464	0	930	772	816	2007	
2465	0	930	773	816	2006	
2466	0	930	772	815	2006	
2467	0	930	773	815	2006	
2468	0	930	772	817	2004	
2469	0	931	772	816	2002	
2470	0	933	770	815	2000	
2471	0	932	770	814	2000	
2472	0	932	773	815	2000	
2473	0	932	773	816	1997	
2474	0	932	773	816	1997	
2475	0	933	772	816	1998	
2476	0	932	772	815	1998	
2477	0	933	773	817	2001	
2478	0	933	772	816	1999	
2479	0	934	771	816	1996	
2480	0	935	772	816	1996	
2481	0	933	771	815	1992	
2482	0	933	771	815	1991	
2483	0	932	772	816	1986	
2484	0	932	772	816	1986	
2485	0	933	772	816	1986	
2486	0	933	772	815	1985	
2487	0	932	772	816	1983	
2488	0	932	772	816	1981	
2489	0	933	772	815	1978	
2490	0	934	771	816	1976	
2491	0	933	771	814	1973	
2492	0	933	771	815	1973	
2493	0	934	771	814	1972	
2494	0	933	771	814	1968	
2495	0	934	771	814	1967	
2496	0	932	771	815	1966	
2497	0	933	773	816	1964	
2498	0	933	773	817	1961	
2499	0	933	772	817	1960	
2500	0	933	773	817	1957	
2501	0	934	773	818	1954	
2502	0	933	772	817	1953	
2503	0	933	772	818	1951	
2504	0	933	772	816	1946	
2505	0	933	771	818	1941	
2506	0	933	771	818	1941	
2507	0	932	771	818	1937	
2508	0	931	772	818	1931	
2509	0	932	771	818	1930	
2510	0	932	772	819	1927	
2511	0	932	772	818	1926	
2512	0	934	771	819	1923	
2513	0	933	771	820	1921	
2514	0	933	771	818	1919	
2515	0	932	771	818	1914	
2516	0	932	770	817	1914	
2517	0	933	770	817	1912	
2518	0	932	771	817	1913	
2519	0	931	770	816	1915	
2520	0	929	770	816	1914	
2521	0	929	770	817	1915	
2522	0	928	770	816	1915	
2523	0	929	771	815	1912	
2524	0	929	770	815	1911	
2525	0	930	771	815	1911	
2526	0	930	770	815	1910	
2527	0	928	770	815	1912	
2528	0	929	770	815	1914	
2529	0	929	769	814	1918	
2530	0	929	771	815	1920	
2531	0	929	769	816	1918	
2532	0	927	770	815	1920	
2533	0	928	770	814	1928	
2534	0	927	769	814	1931	
2535	0	926	769	814	1937	
2536	0	927	769	813	1941	
2537	0	926	769	812	1949	
2538	0	927	769	813	1960	
2539	0	927	769	813	1969	
2540	0	929	769	813	1979	
2541	0	928	769	812	1990	
2542	0	927	770	814	2001	
2543	0	927	769	815	2011	
2544	0	927	770	816	2018	
2545	0	928	768	816	2025	
2546	0	927	769	815	2034	
2547	0	927	771	815	2040	
2548	0	927	770	817	2049	
2549	0	927	770	816	2056	
2550	0	927	770	816	2066	
2551	0	929	771	818	2073	
2552	0	928	771	816	2081	
2553	0	927	770	816	2090	
2554	0	926	770	815	2097	
2555	0	929	769	814	2102	
2556	0	930	769	815	2107	
2557	0	929	768	815	2109	
2558	0	927	769	815	2110	
2559	0	927	770	814	2111	
2560	0	927	771	813	2116	
2561	0	927	771	814	2117	
2562	0	928	770	814	2119	
2563	0	927	771	814	2120	
2564	0	927	770	813	2123	
2565	0	927	771	813	2125	
2566	0	926	772	814	2127	
2567	0	927	773	814	2127	
2568	0	926	773	815	2127	
2569	0	928	773	816	2127	
2570	0	927	774	816	2127	
2571	0	926	773	817	2127	
2572	0	928	773	817	2128	
2573	0	927	773	817	2130	
2574	0	928	773	817	2128	
2575	0	928	773	816	2127	
2576	0	928	774	818	2128	
2577	0	927	773	817	2125	
2578	0	926	772	817	2125	
2579	0	927	771	816	2125	
2580	0	928	770	816	2124	
2581	0	927	771	815	2124	
2582	0	927	771	815	2121	
2583	0	927	771	815	2121	
2584	0	927	771	815	2119	
2585	0	928	771	814	2117	
2586	0	927	770	813	2114	
2587	0	929	771	813	2113	
2588	0	929	770	814	2114	
2589	0	929	770	814	2112	
2590	0	931	770	812	2113	
2591	0	929	770	813	2112	
2592	0	930	771	814	2112	
2593	0	930	771	814	2112	
2594	0	928	773	815	2111	
2595	0	931	772	815	2107	
2596	0	931	772	815	2105	
2597	0	931	773	816	2103	
2598	0	932	773	817	2107	
2599	0	932	773	817	2105	
2600	0	932	773	817	2099	
2601	0	931	773	816	2098	
2602	0	931	773	816	2096	
2603	0	932	774	818	2097	
2604	0	932	774	818	2096	
2605	0	932	774	817	2092	
2606	0	932	775	818	2092	
2607	0	931	774	818	2088	
2608	0	930	775	818	2089	
2609	0	930	775	818	2089	
2610	0	932	776	818	2091	
2611	0	931	776	819	2093	
2612	0	930	776	819	2089	
2613	0	930	776	820	2087	
2614	0	931	777	819	2084	
2615	0	934	777	819	2083	
2616	0	932	776	820	2084	
2617	0	932	776	820	2083	
2618	0	932	776	821	2082	
2619	0	932	776	820	2081	
2620	0	934	777	819	2082	
2621	0	932	777	819	2083	
2622	0	934	777	818	2082	
2623	0	933	776	818	2080	
2624	0	933	775	818	2077	
2625	0	935	776	817	2078	
2626	0	933	776	818	2079	
2627	0	933	777	817	2077	
2628	0	933	776	818	2078	
2629	0	933	775	817	2076	
2630	0	935	775	816	2076	
2631	0	934	774	817	2076	
2632	0	935	774	816	2078	
2633	0	934	775	816	2081	
2634	0	935	775	815	2079	
2635	0	933	777	816	2076	
2636	0	933	775	816	2075	
2637	0	934	775	816	2077	
2638	0	933	775	816	2078	
2639	0	932	775	816	2074	
2640	0	932	775	816	2071	
2641	0	932	776	816	2073	
2642	0	930	775	816	2070	
2643	0	931	776	817	2073	
2644	0	930	776	817	2072	
2645	0	931	777	816	2070	
2646	0	930	775	816	2070	
2647	0	931	775	816	2070	
2648	0	930	775	817	2072	
2649	0	931	774	817	2071	
2650	0	932	777	817	2070	
2651	0	932	775	818	2075	
2652	0	930	775	818	2075	
2653	0	929	774	818	2073	
2654	0	929	774	818	2072	
2655	0	930	774	818	2071	
2656	0	931	774	817	2072	
2657	0	931	774	817	2071	
2658	0	928	774	817	2074	
2659	0	928	775	817	2072	
2660	0	929	774	817	2072	
2661	0	928	773	817	2071	
2662	0	928	775	817	2072	
2663	0	928	774	817	2073	
2664	0	929	773	817	2071	
2665	0	930	774	816	2071	
2666	0	930	774	816	2072	
2667	0	929	773	816	2071	
2668	0	930	775	816	2071	
2669	0	929	774	818	2071	
2670	0	930	772	815	2072	
2671	0	930	773	816	2070	
2672	0	930	773	816	2071	
2673	0	930	772	817	2072	
2674	0	929	772	816	2072	
2675	0	929	772	816	2074	
2676	0	930	773	817	2073	
2677	0	929	773	817	2070	
2678	0	928	773	817	2069	
2679	0	929	773	817	2072	
2680	0	930	772	817	2074	
2681	0	929	774	817	2069	
2682	0	929	773	817	2064	
2683	0	927	774	817	2067	
2684	0	929	774	818	2071	
2685	0	930	775	817	2071	
2686	0	930	774	817	2072	
2687	0	929	774	816	2072	
2688	0	928	773	816	2075	
2689	0	928	773	816	2073	
2690	0	930	773	815	2071	
2691	0	929	773	815	2066	
2692	0	929	772	816	2062	
2693	0	929	772	816	2058	
2694	0	929	773	816	2051	
2695	0	931	773	816	2044	
2696	0	931	772	816	2035	
2697	0	932	772	815	2032	
2698	0	933	772	815	2029	
2699	0	933	772	815	2027	
2700	0	934	773	815	2027	
2701	0	933	772	815	2027	
2702	0	933	772	815	2028	
2703	0	932	772	815	2027	
2704	0	934	774	816	2030	
2705	0	933	774	816	2023	
2706	0	932	773	815	2020	
2707	0	931	773	815	2014	
2708	0	933	774	817	2011	
2709	0	932	775	817	2009	
2710	0	932	774	816	2007	
2711	0	932	773	816	2004	
2712	0	932	773	815	2006	
2713	0	932	773	815	2014	
2714	0	932	773	815	2013	
2715	0	932	773	815	2013	
2716	0	932	771	815	2011	
2717	0	930	771	814	2009	
2718	0	929	772	815	2011	
2719	0	930	772	814	2009	
2720	0	930	773	814	2012	
2721	0	929	772	814	2014	
2722	0	929	772	814	2019	
2723	0	928	773	815	2022	
2724	0	930	772	815	2022	
2725	0	930	773	815	2025	
2726	0	930	772	815	2036	
2727	0	931	772	814	2046	
2728	0	932	772	815	2055	
2729	0	931	772	815	2065	
2730	0	932	773	815	2068	
2731	0	933	772	815	2073	
2732	0	933	770	813	2075	
2733	0	930	771	814	2081	
2734	0	931	771	814	2085	
2735	0	930	772	813	2088	
2736	0	930	771	814	2088	
2737	0	930	771	814	2083	
2738	0	931	772	814	2083	
2739	0	931	771	814	2084	
2740	0	930	772	814	2085	
2741	0	930	771	813	2085	
2742	0	929	771	814	2084	
2743	0	929	771	813	2087	
2744	0	929	772	813	2086	
2745	0	929	774	813	2088	
2746	0	928	773	814	2089	
2747	0	929	773	814	2088	
2748	0	928	773	815	2087	
2749	0	928	772	815	2088	
2750	0	929	774	815	2089	
2751	0	928	773	815	2086	
2752	0	928	774	815	2083	
2753	0	929	773	815	2083	
2754	0	929	773	815	2079	
2755	0	930	774	816	2072	
2756	0	929	773	816	2059	
2757	0	929	773	816	2048	
2758	0	929	774	817	2040	
2759	0	931	772	817	2031	
2760	0	931	775	816	2004	
2761	0	930	774	815	1960	
2762	0	930	773	815	1908	
2763	0	931	773	816	1854	
2764	0	930	772	815	1815	
2765	0	930	774	814	1799	
2766	0	930	773	814	1821	
2767	0	930	773	815	1857	
2768	0	930	772	815	1887	
2769	0	929	772	814	1886	
2770	0	930	774	814	1881	
2771	0	930	775	816	1907	
2772	0	930	774	815	1972	
2773	0	930	774	816	2087	
2774	0	929	775	816	2227	
2775	0	929	776	816	2379	
2776	0	931	776	817	2495	
2777	0	929	775	816	2533	
2778	0	930	775	817	2513	
2779	0	929	775	817	2464	
2780	0	930	775	818	2406	
2781	0	934	775	817	2340	
2782	0	929	776	817	2276	
2783	0	929	775	817	2222	
2784	0	929	775	816	2173	
2785	0	930	777	816	2127	
2786	0	930	774	816	2088	
2787	0	930	774	816	2060	
2788	0	931	774	816	2043	
2789	0	931	773	815	2032	
2790	0	930	775	816	2027	
2791	0	931	774	816	2024	
2792	0	930	775	816	2023	
2793	0	930	774	816	2024	
2794	0	931	773	816	2025	
2795	0	932	774	815	2022	
2796	0	932	773	816	2024	
2797	0	930	771	815	2023	
2798	0	930	772	815	2023	
2799	0	931	772	814	2023	
2800	0	931	773	814	2024	
2801	0	929	774	814	2022	
2802	0	930	774	814	2019	
2803	0	929	775	815	2017	
2804	0	929	774	815	2015	
2805	0	930	775	814	2012	
2806	0	930	773	814	2013	
2807	0	929	774	814	2014	
2808	0	930	773	814	2018	
2809	0	930	773	814	2016	
2810	0	930	774	815	2012	
2811	0	931	773	814	2011	
2812	0	930	774	815	2011	
2813	0	930	773	815	2010	
2814	0	930	773	814	2009	
2815	0	930	774	814	2010	
2816	0	929	773	814	2007	
2817	0	929	773	814	2001	
2818	0	930	774	815	2002	
2819	0	928	773	814	2002	
2820	0	928	773	814	2003	
2821	0	928	774	814	2003	
2822	0	928	773	814	2002	
2823	0	928	773	815	2002	
2824	0	928	771	815	2003	
2825	0	929	774	814	1998	
2826	0	927	774	814	1996	
2827	0	927	774	814	1996	
2828	0	928	774	814	1996	
2829	0	928	773	814	1994	
2830	0	928	774	814	1994	
2831	0	929	773	814	1994	
2832	0	929	774	814	1993	
2833	0	928	773	815	1997	
2834	0	927	773	814	1996	
2835	0	929	774	814	1995	
2836	0	929	772	813	1996	
2837	0	928	772	813	1994	
2838	0	929	771	813	1994	
2839	0	929	771	813	1990	
2840	0	930	772	813	1990	
2841	0	930	772	812	1989	
2842	0	928	772	812	1987	
2843	0	928	771	813	1987	
2844	0	929	772	812	1987	
2845	0	929	773	811	1985	
2846	0	929	772	811	1985	
2847	0	929	772	812	1984	
2848	0	929	771	813	1983	
2849	0	930	773	813	1979	
2850	0	930	773	813	1978	
2851	0	930	773	813	1976	
2852	0	929	773	813	1975	
2853	0	930	773	814	1975	
2854	0	930	774	814	1974	
2855	0	929	775	815	1971	
2856	0	929	774	815	1967	
2857	0	930	774	815	1967	
2858	0	931	775	816	1967	
2859	0	930	774	816	1964	
2860	0	931	775	817	1960	
2861	0	931	774	816	1957	
2862	0	931	775	817	1956	
2863	0	931	774	816	1956	
2864	0	931	775	816	1953	
2865	0	931	775	816	1950	
2866	0	931	774	816	1948	
2867	0	932	775	816	1946	
2868	0	932	774	816	1943	
2869	0	931	774	815	1939	
2870	0	932	774	816	1935	
2871	0	931	774	815	1933	
2872	0	932	774	815	1930	
2873	0	931	774	815	1928	
2874	0	930	774	815	1925	
2875	0	931	774	814	1922	
2876	0	930	774	814	1920	
2877	0	930	773	813	1917	
2878	0	932	774	815	1915	
2879	0	930	772	814	1915	
2880	0	931	772	814	1911	
2881	0	931	772	813	1908	
2882	0	931	772	813	1907	
2883	0	931	773	811	1907	
2884	0	931	772	814	1906	
2885	0	931	773	813	1904	
2886	0	930	772	813	1904	
2887	0	930	772	813	1903	
2888	0	930	771	813	1903	
2889	0	930	772	814	1906	
2890	0	931	772	813	1904	
2891	0	931	772	813	1904	
2892	0	931	773	813	1904	
2893	0	931	771	812	1904	
2894	0	930	772	813	1904	
2895	0	932	772	813	1905	
2896	0	931	771	813	1907	
2897	0	931	772	813	1909	
2898	0	931	772	813	1914	
2899	0	931	772	812	1915	
2900	0	931	772	812	1920	
2901	0	930	773	812	1925	
2902	0	930	772	813	1931	
2903	0	931	771	812	1939	
2904	0	932	772	812	1944	
2905	0	933	773	812	1951	
2906	0	932	772	811	1959	
2907	0	932	773	812	1966	
2908	0	933	771	811	1977	
2909	0	932	772	812	1985	
2910	0	933	772	813	1996	
2911	0	933	772	813	2007	
2912	0	933	772	813	2017	
2913	0	933	772	812	2027	
2914	0	933	773	813	2033	
2915	0	934	773	815	2044	
2916	0	933	774	815	2055	
2917	0	933	773	814	2061	
2918	0	932	773	813	2067	
2919	0	933	774	813	2069	
2920	0	931	775	813	2077	
2921	0	932	775	815	2085	
2922	0	931	776	814	2091	
2923	0	932	774	814	2097	
2924	0	932	774	814	2098	
2925	0	934	776	818	2106	
2926	0	934	775	816	2113	
2927	0	934	774	815	2114	
2928	0	933	773	815	2118	
2929	0	932	774	816	2122	
2930	0	934	774	814	2123	
2931	0	934	772	816	2122	
2932	0	934	774	815	2126	
2933	0	931	772	815	2127	
2934	0	932	773	816	2128	
2935	0	932	774	815	2128	
2936	0	931	774	815	2129	
2937	0	931	774	816	2129	
2938	0	931	773	815	2125	
2939	0	933	774	815	2126	
2940	0	932	774	813	2132	
2941	0	932	773	814	2132	
2942	0	933	773	816	2132	
2943	0	932	773	815	2131	
2944	0	932	773	816	2131	
2945	0	932	774	816	2127	
2946	0	931	772	814	2127	
2947	0	931	773	814	2127	
2948	0	932	774	814	2128	
2949	0	930	774	814	2127	
2950	0	930	775	814	2124	
2951	0	930	774	815	2121	
2952	0	931	773	815	2120	
2953	0	930	773	815	2120	
2954	0	931	773	814	2118	
2955	0	931	773	813	2117	
2956	0	931	773	814	2116	
2957	0	931	773	813	2115	
2958	0	931	773	813	2114	
2959	0	930	773	813	2112	
2960	0	930	774	813	2110	
2961	0	929	773	813	2108	
2962	0	929	773	813	2107	
2963	0	929	774	813	2107	
2964	0	930	774	813	2105	
2965	0	930	774	813	2102	
2966	0	929	774	813	2101	
2967	0	928	775	813	2101	
2968	0	930	775	816	2103	
2969	0	929	774	814	2103	
2970	0	931	774	814	2100	
2971	0	930	773	813	2100	
2972	0	930	773	812	2098	
2973	0	930	773	812	2097	
2974	0	930	773	813	2097	
2975	0	930	773	812	2094	
2976	0	930	772	812	2095	
2977	0	930	772	811	2094	
2978	0	930	772	811	2092	
2979	0	929	772	812	2091	
2980	0	929	772	812	2089	
2981	0	929	772	812	2087	
2982	0	930	771	812	2085	
2983	0	931	771	812	2086	
2984	0	931	771	812	2085	
2985	0	931	771	812	2084	
2986	0	931	771	812	2083	
2987	0	930	771	811	2082	
2988	0	931	772	812	2082	
2989	0	931	772	813	2084	
2990	0	931	772	813	2081	
2991	0	930	771	812	2080	
2992	0	930	772	812	2079	
2993	0	931	773	814	2079	
2994	0	930	772	815	2078	
2995	0	930	772	813	2077	
2996	0	929	772	813	2074	
2997	0	929	772	813	2074	
2998	0	929	772	812	2076	
2999	0	930	772	813	2076	
3000	0	929	772	813	2076	
3001	0	929	772	813	2075	
3002	0	929	771	812	2074	
3003	0	929	772	812	2075	
3004	0	929	772	813	2074	
3005	0	930	773	814	2073	
3006	0	930	772	813	2073	
3007	0	930	772	812	2073	
3008	0	930	771	813	2074	
3009	0	929	772	812	2072	
3010	0	931	773	814	2073	
3011	0	930	773	813	2074	
3012	0	930	773	813	2074	
3013	0	930	775	814	2076	
3014	0	928	774	814	2077	
3015	0	929	774	814	2075	
3016	0	930	774	815	2077	
3017	0	929	773	814	2074	
3018	0	930	774	814	2078	
3019	0	930	774	813	2079	
3020	0	930	774	813	2078	
3021	0	930	774	813	2077	
3022	0	929	773	814	2078	
3023	0	929	774	814	2078	
3024	0	931	773	813	2077	
3025	0	931	774	813	2077	
3026	0	931	773	813	2076	
3027	0	931	772	813	2075	
3028	0	930	773	813	2076	
3029	0	931	773	813	2073	
3030	0	931	773	814	2073	
3031	0	932	773	813	2074	
3032	0	934	773	813	2075	
3033	0	932	774	815	2078	
3034	0	932	773	813	2075	
3035	0	932	774	813	2073	
3036	0	932	774	813	2073	
3037	0	932	773	813	2076	
3038	0	932	773	813	2076	
3039	0	932	773	813	2075	
3040	0	933	773	814	2076	
3041	0	933	773	814	2077	
3042	0	933	773	814	2077	
3043	0	934	774	814	2076	
3044	0	936	773	814	2075	
3045	0	936	774	815	2073	
3046	0	935	774	814	2074	
3047	0	934	773	813	2070	
3048	0	933	772	813	2068	
3049	0	932	773	813	2063	
3050	0	935	772	813	2059	
3051	0	933	773	812	2053	
3052	0	932	773	813	2045	
3053	0	932	773	813	2037	
3054	0	932	772	813	2029	
3055	0	931	774	813	2025	
3056	0	932	773	813	2025	
3057	0	933	774	813	2027	
3058	0	931	774	814	2027	
3059	0	932	772	813	2027	
3060	0	933	774	815	2026	
3061	0	933	773	814	2023	
3062	0	933	774	814	2021	
3063	0	932	773	814	2024	
3064	0	932	774	813	2021	
3065	0	932	774	815	2018	
3066	0	933	773	814	2016	
3067	0	929	774	813	2013	
3068	0	932	775	815	2016	
3069	0	931	773	812	2020	
3070	0	931	774	814	2017	
3071	0	932	775	814	2017	
3072	0	933	774	813	2014	
3073	0	931	774	813	2015	
3074	0	930	774	813	2016	
3075	0	932	773	812	2017	
3076	0	931	772	813	2019	
3077	0	931	774	813	2023	
3078	0	932	773	813	2026	
3079	0	932	774	813	2030	
3080	0	930	774	815	2034	
3081	0	930	773	812	2036	
3082	0	929	773	813	2043	
3083	0	929	773	812	2053	
3084	0	930	773	812	2057	
3085	0	930	773	813	2066	
3086	0	930	773	812	2075	
3087	0	930	773	812	2080	
3088	0	932	774	812	2086	
3089	0	930	772	811	2091	
3090	0	930	773	812	2095	
3091	0	930	772	811	2098	
3092	0	931	772	811	2100	
3093	0	929	772	810	2101	
3094	0	930	772	811	2100	
3095	0	932	773	812	2100	
3096	0	932	772	812	2102	
3097	0	932	772	811	2099	
3098	0	931	772	811	2097	
3099	0	933	771	810	2095	
3100	0	931	772	811	2096	
3101	0	932	773	812	2099	
3102	0	931	773	811	2097	
3103	0	930	772	812	2099	
3104	0	931	772	811	2099	
3105	0	930	773	813	2094	
3106	0	931	773	812	2092	
3107	0	930	773	814	2090	
3108	0	931	773	813	2094	
3109	0	931	774	813	2092	
3110	0	930	774	814	2091	
3111	0	931	774	813	2089	
3112	0	931	774	814	2083	
3113	0	931	774	814	2074	
3114	0	931	775	813	2061	
3115	0	930	775	814	2050	
3116	0	930	774	813	2035	
3117	0	933	774	813	2009	
3118	0	930	773	814	1968	
3119	0	930	773	813	1914	
3120	0	932	774	815	1860	
3121	0	931	774	814	1820	
3122	0	931	774	813	1804	
3123	0	930	773	813	1825	
3124	0	929	773	812	1858	
3125	0	930	773	812	1883	
3126	0	931	774	812	1882	
3127	0	929	773	812	1879	
3128	0	930	774	812	1905	
3129	0	930	773	812	1976	
3130	0	931	773	813	2094	
3131	0	931	773	813	2238	
3132	0	929	773	812	2396	
3133	0	929	772	812	2514	
3134	0	930	773	812	2554	
3135	0	930	773	813	2530	
3136	0	929	772	812	2477	
3137	0	929	772	812	2412	
3138	0	929	772	812	2341	
3139	0	929	772	812	2280	
3140	0	929	773	813	2222	
3141	0	931	774	813	2175	
3142	0	931	773	812	2126	
3143	0	930	773	811	2088	
3144	0	930	773	811	2060	
3145	0	931	773	812	2047	
3146	0	930	774	812	2035	
3147	0	928	772	812	2028	
3148	0	930	773	812	2026	
3149	0	929	773	813	2027	
3150	0	929	773	814	2028	
3151	0	928	773	814	2029	
3152	0	928	774	814	2030	
3153	0	928	774	813	2030	
3154	0	928	774	814	2026	
3155	0	929	774	814	2026	
3156	0	929	774	813	2024	
3157	0	930	774	813	2023	
3158	0	930	774	813	2023	
3159	0	930	774	813	2021	
3160	0	930	775	813	2018	
3161	0	931	775	814	2021	
3162	0	931	774	813	2021	
3163	0	932	775	814	2024	
3164	0	930	775	812	2024	
3165	0	929	775	813	2021	
3166	0	931	776	814	2020	
3167	0	931	775	813	2017	
3168	0	932	775	813	2016	
3169	0	931	775	813	2016	
3170	0	931	775	813	2017	
3171	0	931	774	814	2014	
3172	0	932	774	813	2014	
3173	0	931	775	812	2013	
3174	0	930	774	813	2011	
3175	0	930	775	814	2011	
3176	0	932	775	814	2011	
3177	0	932	775	814	2010	
3178	0	931	775	813	2009	
3179	0	931	774	813	2008	
3180	0	932	775	814	2006	
3181	0	931	775	813	2004	
3182	0	931	775	813	2005	
3183	0	931	774	813	2005	
3184	0	930	774	814	2003	
3185	0	932	775	814	2002	
3186	0	931	774	813	2000	
3187	0	931	774	813	2000	
3188	0	933	774	814	2000	
3189	0	932	774	813	2001	
3190	0	932	774	813	1999	
3191	0	931	774	813	1997	
3192	0	932	775	813	1995	
3193	0	931	774	811	1995	
3194	0	931	774	812	1996	
3195	0	931	774	813	1994	
3196	0	930	774	813	1994	
3197	0	932	774	813	1992	
3198	0	930	774	811	1990	
3199	0	930	773	811	1989	
3200	0	931	773	811	1988	
3201	0	930	773	810	1986	
3202	0	930	773	811	1984	
3203	0	930	773	810	1984	
3204	0	930	773	810	1981	
3205	0	930	773	811	1979	
3206	0	930	774	811	1981	
3207	0	930	773	810	1977	
3208	0	930	774	809	1976	
3209	0	931	774	810	1974	
3210	0	931	774	811	1976	
3211	0	930	775	811	1974	
3212	0	932	773	811	1968	
3213	0	932	774	811	1966	
3214	0	931	774	811	1965	
3215	0	931	774	811	1962	
3216	0	932	773	812	1959	
3217	0	932	774	811	1958	
3218	0	932	774	811	1957	
3219	0	932	774	812	1956	
3220	0	931	774	812	1953	
3221	0	931	774	813	1951	
3222	0	932	774	812	1949	
3223	0	932	774	812	1946	
3224	0	933	774	813	1943	
3225	0	933	775	813	1941	
3226	0	932	774	813	1937	
3227	0	933	774	813	1934	
3228	0	933	774	812	1932	
3229	0	934	775	813	1928	
3230	0	933	775	814	1927	
3231	0	932	775	813	1923	
3232	0	932	775	813	1922	
3233	0	931	774	812	1920	
3234	0	933	774	812	1918	
3235	0	933	775	813	1917	
3236	0	931	774	813	1914	
3237	0	932	775	813	1912	
3238	0	933	775	814	1913	
3239	0	932	774	813	1909	
3240	0	932	775	812	1909	
3241	0	931	775	813	1907	
3242	0	932	775	813	1904	
3243	0	933	775	812	1903	
3244	0	932	774	813	1902	
3245	0	931	775	812	1900	
3246	0	932	775	812	1901	
3247	0	933	774	811	1902	
3248	0	932	774	812	1902	
3249	0	932	775	812	1903	
3250	0	932	775	813	1905	
3251	0	930	775	814	1906	
3252	0	931	774	813	1907	
3253	0	931	774	813	1908	
3254	0	931	774	813	1908	
3255	0	931	775	814	1912	
3256	0	930	776	814	1915	
3257	0	931	774	812	1916	
3258	0	931	774	813	1923	
3259	0	932	775	812	1929	
3260	0	933	776	813	1938	
3261	0	930	775	813	1944	
3262	0	931	775	812	1951	
3263	0	931	775	812	1961	
3264	0	930	776	812	1970	
3265	0	930	776	812	1980	
3266	0	930	776	814	1988	
3267	0	931	774	812	1996	
3268	0	932	775	813	2006	
3269	0	932	775	812	2014	
3270	0	931	775	812	2024	
3271	0	933	775	812	2032	
3272	0	935	775	811	2042	
3273	0	933	774	811	2051	
3274	0	933	774	812	2059	
3275	0	933	775	813	2066	
3276	0	934	774	811	2071	
3277	0	935	775	811	2078	
3278	0	933	774	812	2085	
3279	0	934	775	812	2091	
3280	0	934	775	812	2098	
3281	0	934	775	812	2103	
3282	0	934	775	812	2108	
3283	0	932	775	812	2113	
3284	0	933	775	812	2116	
3285	0	933	775	812	2119	
3286	0	932	775	812	2121	
3287	0	931	774	812	2124	
3288	0	932	775	812	2124	
3289	0	932	775	812	2125	
3290	0	932	774	812	2128	
3291	0	930	775	814	2128	
3292	0	933	773	813	2129	
3293	0	931	774	811	2129	
3294	0	931	775	811	2128	
3295	0	931	774	811	2130	
3296	0	930	774	811	2131	
3297	0	931	773	811	2134	
3298	0	931	774	811	2133	
3299	0	932	775	811	2132	
3300	0	932	774	811	2133	
3301	0	931	775	810	2129	
3302	0	933	774	811	2129	
3303	0	932	774	811	2128	
3304	0	932	774	812	2126	
3305	0	932	774	812	2126	
3306	0	932	774	812	2122	
3307	0	932	775	812	2121	
3308	0	933	775	812	2123	
3309	0	931	775	812	2119	
3310	0	930	775	812	2117	
3311	0	929	776	814	2115	
3312	0	932	774	812	2115	
3313	0	931	775	811	2112	
3314	0	932	775	811	2111	
3315	0	932	774	812	2111	
3316	0	931	775	812	2107	
3317	0	932	775	811	2107	
3318	0	932	775	811	2105	
3319	0	932	775	812	2105	
3320	0	931	774	811	2105	
3321	0	932	775	811	2104	
3322	0	933	775	810	2103	
3323	0	931	775	811	2102	
3324	0	932	774	810	2102	
3325	0	930	773	811	2101	
3326	0	930	774	810	2100	
3327	0	932	776	811	2099	
3328	0	932	774	811	2097	
3329	0	930	774	811	2096	
3330	0	930	774	811	2097	
3331	0	930	775	810	2095	
3332	0	931	778	810	2094	
3333	0	931	775	811	2095	
3334	0	929	774	811	2093	
3335	0	929	773	812	2093	
3336	0	930	775	812	2094	
3337	0	931	774	810	2093	
3338	0	929	775	811	2092	
3339	0	931	775	811	2091	
3340	0	931	775	811	2092	
3341	0	932	774	811	2090	
3342	0	933	774	811	2090	
3343	0	932	774	811	2089	
3344	0	932	775	811	2086	
3345	0	931	774	811	2084	
3346	0	931	774	810	2082	
3347	0	931	774	810	2082	
3348	0	931	775	811	2081	
3349	0	931	775	811	2081	
3350	0	929	775	811	2080	
3351	0	930	776	812	2080	
3352	0	931	777	812	2077	
3353	0	931	775	812	2076	
3354	0	931	776	811	2075	
3355	0	930	775	812	2076	
3356	0	930	775	811	2074	
3357	0	931	777	811	2076	
3358	0	930	775	810	2076	
3359	0	930	775	811	2076	
3360	0	930	774	812	2078	
3361	0	931	775	811	2076	
3362	0	930	775	811	2077	
3363	0	929	775	811	2076	
3364	0	931	776	812	2076	
3365	0	930	775	813	2076	
3366	0	930	775	812	2075	
3367	0	932	775	812	2077	
3368	0	931	775	811	2076	
3369	0	931	775	812	2076	
3370	0	932	775	813	2079	
3371	0	931	774	811	2076	
3372	0	931	774	811	2076	
3373	0	932	775	812	2079	
3374	0	931	774	811	2078	
3375	0	932	774	810	2077	
3376	0	932	775	810	2079	
3377	0	931	774	810	2078	
3378	0	932	775	810	2080	
3379	0	932	774	809	2079	
3380	0	931	773	810	2080	
3381	0	933	775	811	2079	
3382	0	932	775	810	2079	
3383	0	932	775	811	2078	
3384	0	932	774	811	2077	
3385	0	931	774	812	2078	
3386	0	932	775	812	2076	
3387	0	932	776	812	2077	
3388	0	931	776	812	2075	
3389	0	933	775	812	2077	
3390	0	931	775	813	2077	
3391	0	931	775	813	2077	
3392	0	932	775	813	2076	
3393	0	931	774	814	2074	
3394	0	932	775	814	2075	
3395	0	931	776	813	2074	
3396	0	932	776	813	2073	
3397	0	933	777	813	2072	
3398	0	933	776	814	2075	
3399	0	933	775	812	2074	
3400	0	932	776	812	2076	
3401	0	933	775	812	2075	
3402	0	934	776	813	2075	
3403	0	933	775	813	2074	
3404	0	933	774	812	2075	
3405	0	931	774	813	2077	
3406	0	933	774	812	2074	
3407	0	933	775	812	2075	
3408	0	933	775	811	2073	
3409	0	932	774	812	2073	
3410	0	931	774	812	2075	
3411	0	933	774	811	2073	
3412	0	933	775	812	2074	
3413	0	932	774	811	2072	
3414	0	932	775	811	2072	
3415	0	932	774	811	2072	
3416	0	932	775	812	2073	
3417	0	933	775	810	2070	
3418	0	932	774	810	2071	
3419	0	931	774	811	2072	
3420	0	932	775	811	2074	
3421	0	932	775	811	2073	
3422	0	933	774	811	2070	
3423	0	933	774	810	2067	
3424	0	932	773	811	2067	
3425	0	932	775	811	2069	
3426	0	932	774	811	2068	
3427	0	933	776	811	2069	
3428	0	932	775	811	2069	
3429	0	932	775	811	2068	
3430	0	930	775	811	2068	
3431	0	933	775	812	2065	
3432	0	933	776	811	2066	
3433	0	932	775	812	2066	
3434	0	932	775	811	2066	
3435	0	930	776	811	2068	
3436	0	932	776	811	2066	
3437	0	932	776	812	2065	
3438	0	931	775	811	2064	
3439	0	931	776	811	2064	
3440	0	931	777	812	2065	
3441	0	930	776	812	2066	
3442	0	929	777	812	2064	
3443	0	931	777	812	2064	
3444	0	930	776	811	2059	
3445	0	931	776	812	2056	
3446	0	932	776	812	2051	
3447	0	932	777	812	2044	
3448	0	928	779	815	2036	
3449	0	930	779	813	2027	
3450	0	934	777	813	2023	
3451	0	933	775	811	2017	
3452	0	931	776	810	2017	
3453	0	930	775	810	2017	
3454	0	931	776	810	2021	
3455	0	932	776	810	2023	
3456	0	931	776	810	2022	
3457	0	931	777	810	2020	
3458	0	931	776	810	2015	
3459	0	932	776	811	2014	
3460	0	932	776	811	2011	
3461	0	932	776	811	2007	
3462	0	931	775	811	2004	
3463	0	934	775	811	2003	
3464	0	930	776	811	2005	
3465	0	930	775	811	2008	
3466	0	930	775	811	2005	
3467	0	930	776	812	2004	
3468	0	929	775	812	2003	
3469	0	929	776	811	2005	
3470	0	931	776	811	2006	
3471	0	929	775	811	2008	
3472	0	930	777	811	2007	
3473	0	930	775	811	2011	
3474	0	929	776	811	2014	
3475	0	929	775	811	2021	
3476	0	930	775	812	2027	
3477	0	929	777	810	2026	
3478	0	931	776	811	2033	
3479	0	931	775	810	2037	
3480	0	930	775	811	2043	
3481	0	929	775	811	2048	
3482	0	928	776	811	2058	
3483	0	930	777	812	2069	
3484	0	930	777	812	2072	
3485	0	930	777	812	2077	
3486	0	930	776	812	2082	
3487	0	931	778	812	2087	
3488	0	930	776	812	2091	
3489	0	929	777	811	2091	
3490	0	931	776	812	2092	
3491	0	929	776	812	2090	
3492	0	929	779	812	2089	
3493	0	931	776	812	2088	
3494	0	930	778	811	2086	
3495	0	931	777	812	2088	
3496	0	931	776	811	2089	
3497	0	931	778	811	2091	
3498	0	931	776	811	2090	
3499	0	932	776	810	2089	
3500	0	932	776	811	2089	
3501	0	932	775	811	2088	
3502	0	932	777	811	2088	
3503	0	932	776	810	2086	
3504	0	932	776	810	2086	
3505	0	932	776	810	2085	
3506	0	932	775	811	2084	
3507	0	932	777	811	2083	
3508	0	933	776	810	2080	
3509	0	933	776	810	2071	
3510	0	933	776	811	2059	
3511	0	935	775	812	2047	
3512	0	934	777	811	2035	
3513	0	935	777	812	2019	
3514	0	934	776	811	1990	
3515	0	934	777	811	1945	
3516	0	933	776	811	1890	
3517	0	934	777	814	1836	
3518	0	934	777	812	1803	
3519	0	932	776	811	1795	
3520	0	931	777	811	1820	
3521	0	931	776	811	1853	
3522	0	930	776	811	1870	
3523	0	933	777	812	1870	
3524	0	932	776	811	1871	
3525	0	932	776	811	1911	
3526	0	932	775	812	1998	
3527	0	932	776	810	2120	
3528	0	934	776	811	2273	
3529	0	932	776	811	2425	
3530	0	933	775	811	2528	
3531	0	932	775	811	2549	
3532	0	933	776	810	2516	
3533	0	932	775	811	2460	
3534	0	932	776	811	2393	
3535	0	932	776	811	2324	
3536	0	931	776	811	2260	
3537	0	932	776	812	2207	
3538	0	932	774	812	2157	
3539	0	932	775	811	2112	
3540	0	932	776	811	2079	
3541	0	932	775	811	2053	
3542	0	933	777	811	2038	
3543	0	933	776	810	2030	
3544	0	932	776	810	2026	
3545	0	932	775	811	2025	
3546	0	932	776	811	2023	
3547	0	932	777	811	2022	
3548	0	932	776	811	2023	
3549	0	932	776	810	2024	
3550	0	932	776	811	2023	
3551	0	933	776	810	2020	
3552	0	932	777	810	2019	
3553	0	932	777	810	2020	
3554	0	932	777	811	2018	
3555	0	932	776	811	2018	
3556	0	931	777	812	2019	
3557	0	932	777	812	2016	
3558	0	931	777	811	2015	
3559	0	930	777	811	2015	
3560	0	932	777	811	2013	
3561	0	932	776	812	2015	
3562	0	933	777	811	2013	
3563	0	931	776	811	2011	
3564	0	930	777	810	2011	
3565	0	931	778	811	2012	
3566	0	927	780	814	2014	
3567	0	931	779	813	2009	
3568	0	932	777	812	2009	
3569	0	931	776	811	2009	
3570	0	931	775	811	2008	
3571	0	932	775	809	2006	
3572	0	932	775	809	2005	
3573	0	932	775	809	2003	
3574	0	933	775	809	2001	
3575	0	933	776	810	2001	
3576	0	932	776	809	1999	
3577	0	932	777	810	1999	
3578	0	931	777	810	1999	
3579	0	931	777	810	1999	
3580	0	930	776	810	1999	
3581	0	932	777	811	1999	
3582	0	932	777	811	1995	
3583	0	930	776	810	1994	
3584	0	930	777	809	1994	
3585	0	930	776	809	1996	
3586	0	930	776	809	1992	
3587	0	931	777	813	1992	
3588	0	932	777	810	1993	
3589	0	930	776	809	1990	
3590	0	929	780	815	1990	
3591	0	929	779	812	1992	
3592	0	932	778	811	1988	
3593	0	932	776	809	1987	
3594	0	933	775	808	1986	
3595	0	932	775	808	1986	
3596	0	931	776	809	1987	
3597	0	932	777	810	1985	
3598	0	931	777	809	1982	
3599	0	930	777	810	1982	
3600	0	930	775	809	1981	
3601	0	932	776	809	1978	
3602	0	931	777	809	1977	
3603	0	930	776	810	1977	
3604	0	930	777	809	1976	
3605	0	930	775	809	1977	
3606	0	931	776	809	1976	
3607	0	931	777	808	1974	
3608	0	931	775	808	1971	
3609	0	931	776	809	1971	
3610	0	931	775	807	1971	
3611	0	931	775	809	1970	
3612	0	932	776	808	1966	
3613	0	932	775	807	1964	
3614	0	932	776	808	1962	
3615	0	932	775	809	1960	
3616	0	932	777	809	1955	
3617	0	933	777	810	1953	
3618	0	933	778	811	1952	
3619	0	933	778	811	1948	
3620	0	933	777	810	1949	
3621	0	933	778	811	1945	
3622	0	933	778	811	1942	
3623	0	932	778	811	1940	
3624	0	933	778	814	1937	
3625	0	932	777	811	1935	
3626	0	932	777	811	1930	
3627	0	930	779	811	1929	
3628	0	933	778	812	1929	
3629	0	933	778	811	1926	
3630	0	933	777	811	1926	
3631	0	932	778	811	1927	
3632	0	933	779	811	1922	
3633	0	932	778	811	1919	
3634	0	934	778	812	1918	
3635	0	932	777	812	1915	
3636	0	933	778	811	1914	
3637	0	932	779	809	1913	
3638	0	932	778	810	1911	
3639	0	934	778	810	1911	
3640	0	933	777	810	1910	
3641	0	932	778	810	1909	
3642	0	932	778	809	1909	
3643	0	931	777	809	1908	
3644	0	934	777	808	1908	
3645	0	932	776	808	1908	
3646	0	931	777	808	1907	
3647	0	933	778	809	1911	
3648	0	934	777	810	1911	
3649	0	932	777	809	1910	
3650	0	933	777	809	1911	
3651	0	931	777	810	1913	
3652	0	931	778	810	1913	
3653	0	931	777	808	1914	
3654	0	931	778	809	1917	
3655	0	931	778	809	1921	
3656	0	933	777	810	1924	
3657	0	932	778	808	1930	
3658	0	932	778	809	1936	
3659	0	931	779	810	1944	
3660	0	931	779	809	1951	
3661	0	930	779	810	1959	
3662	0	930	779	809	1967	
3663	0	930	779	810	1976	
3664	0	931	779	811	1984	
3665	0	932	779	810	1996	
3666	0	932	779	810	2004	
3667	0	933	779	811	2013	
3668	0	931	779	810	2020	
3669	0	930	778	810	2030	
3670	0	930	779	809	2040	
3671	0	931	779	810	2047	
3672	0	932	779	810	2054	
3673	0	932	779	811	2062	
3674	0	932	779	810	2071	
3675	0	932	778	811	2079	
3676	0	931	779	810	2087	
3677	0	932	780	811	2092	
3678	0	932	779	811	2096	
3679	0	933	779	811	2101	
3680	0	933	778	810	2106	
3681	0	934	778	811	2111	
3682	0	933	779	811	2114	
3683	0	930	781	811	2119	
3684	0	931	781	812	2122	
3685	0	935	781	812	2130	
3686	0	935	779	812	2130	
3687	0	933	778	811	2129	
3688	0	933	778	809	2130	
3689	0	933	777	809	2130	
3690	0	934	778	810	2134	
3691	0	932	778	811	2136	
3692	0	932	779	811	2134	
3693	0	932	779	811	2136	
3694	0	932	779	811	2137	
3695	0	932	779	810	2137	
3696	0	932	779	810	2136	
3697	0	933	779	811	2135	
3698	0	932	779	810	2135	
3699	0	932	778	810	2135	
3700	0	932	779	811	2136	
3701	0	932	779	811	2135	
3702	0	932	779	812	2133	
3703	0	932	778	811	2131	
3704	0	932	778	811	2131	
3705	0	932	779	810	2130	
3706	0	932	778	810	2128	
3707	0	933	779	812	2125	
3708	0	931	779	810	2125	
3709	0	932	778	811	2123	
3710	0	933	780	811	2125	
3711	0	932	779	811	2124	
3712	0	933	780	811	2121	
3713	0	932	779	810	2119	
3714	0	933	779	809	2116	
3715	0	934	779	811	2117	
3716	0	933	779	811	2116	
3717	0	932	779	810	2113	
3718	0	932	778	809	2113	
3719	0	932	779	809	2113	
3720	0	931	778	809	2112	
3721	0	932	778	809	2108	
3722	0	934	779	810	2107	
3723	0	933	779	809	2106	
3724	0	933	779	809	2106	
3725	0	933	779	809	2105	
3726	0	932	779	809	2103	
3727	0	932	779	809	2103	
3728	0	931	779	810	2101	
3729	0	929	780	810	2099	
3730	0	934	778	808	2099	
3731	0	933	777	807	2097	
3732	0	932	776	807	2095	
3733	0	932	777	806	2093	
3734	0	932	776	807	2094	
3735	0	933	776	808	2095	
3736	0	933	778	808	2092	
3737	0	933	778	809	2090	
3738	0	934	779	810	2093	
3739	0	932	778	810	2087	
3740	0	935	780	810	2088	
3741	0	934	779	808	2086	
3742	0	933	779	810	2084	
3743	0	932	778	809	2084	
3744	0	931	778	809	2082	
3745	0	930	778	810	2083	
3746	0	932	778	810	2081	
3747	0	932	779	811	2079	
3748	0	932	779	810	2078	
3749	0	930	780	811	2079	
3750	0	931	780	811	2082	
3751	0	932	779	811	2082	
3752	0	931	780	810	2081	
3753	0	931	779	810	2080	
3754	0	931	779	811	2080	
3755	0	931	779	810	2081	
3756	0	931	779	809	2077	
3757	0	931	779	810	2077	
3758	0	931	779	809	2078	
3759	0	931	778	810	2078	
3760	0	931	779	809	2080	
3761	0	932	779	809	2081	
3762	0	933	779	810	2080	
3763	0	932	780	810	2082	
3764	0	931	779	809	2080	
3765	0	932	780	809	2081	
3766	0	931	779	807	2083	
3767	0	931	780	808	2078	
3768	0	931	779	809	2077	
3769	0	932	779	809	2076	
3770	0	934	780	810	2080	
3771	0	932	779	808	2079	
3772	0	932	780	809	2077	
3773	0	933	782	809	2078	
3774	0	931	780	809	2078	
3775	0	932	780	809	2079	
3776	0	932	780	809	2079	
3777	0	932	781	810	2079	
3778	0	932	780	809	2079	
3779	0	933	780	809	2078	
3780	0	932	779	809	2080	
3781	0	932	780	808	2078	
3782	0	933	779	811	2077	
3783	0	932	779	809	2077	
3784	0	931	780	809	2077	
3785	0	931	780	809	2081	
3786	0	930	781	811	2082	
3787	0	930	782	811	2081	
3788	0	935	781	810	2081	
3789	0	936	778	809	2081	
3790	0	933	779	809	2083	
3791	0	931	778	807	2082	
3792	0	932	779	810	2079	
3793	0	932	779	809	2079	
3794	0	932	779	810	2078	
3795	0	932	779	810	2080	
3796	0	931	780	809	2079	
3797	0	931	781	811	2079	
3798	0	932	780	810	2079	
3799	0	933	780	812	2078	
3800	0	933	780	811	2080	
3801	0	933	779	810	2078	
3802	0	933	779	810	2078	
3803	0	934	779	809	2077	
3804	0	934	779	809	2077	
3805	0	934	779	809	2078	
3806	0	935	778	808	2079	
3807	0	935	780	809	2077	
3808	0	934	780	809	2076	
3809	0	934	780	809	2077	
3810	0	935	781	811	2078	
3811	0	934	781	809	2077	
3812	0	936	780	811	2074	
3813	0	935	782	811	2074	
3814	0	935	781	812	2074	
3815	0	935	781	811	2077	
3816	0	936	780	811	2076	
3817	0	934	781	812	2076	
3818	0	934	780	811	2075	
3819	0	933	780	812	2073	
3820	0	933	781	810	2074	
3821	0	934	780	810	2074	
3822	0	934	781	811	2073	
3823	0	934	780	809	2073	
3824	0	935	780	810	2072	
3825	0	934	780	809	2071	
3826	0	935	780	808	2073	
3827	0	933	781	810	2070	
3828	0	935	781	810	2072	
3829	0	936	780	810	2070	
3830	0	934	780	810	2070	
3831	0	933	781	810	2068	
3832	0	934	781	811	2069	
3833	0	933	781	810	2068	
3834	0	934	781	811	2067	
3835	0	933	781	810	2066	
3836	0	932	782	810	2066	
3837	0	932	781	812	2065	
3838	0	932	781	811	2067	
3839	0	931	781	811	2068	
3840	0	932	780	810	2069	
3841	0	932	781	810	2067	
3842	0	932	781	812	2066	
3843	0	932	780	811	2066	
3844	0	930	781	811	2066	
3845	0	931	781	810	2064	
3846	0	932	781	810	2064	
3847	0	932	780	810	2064	
3848	0	933	780	810	2063	
3849	0	935	779	810	2063	
3850	0	933	780	811	2064	
3851	0	931	779	808	2065	
3852	0	931	780	810	2061	
3853	0	932	781	810	2061	
3854	0	929	780	810	2062	
3855	0	931	780	809	2062	
3856	0	931	781	809	2062	
3857	0	930	780	810	2061	
3858	0	929	780	809	2060	
3859	0	930	780	809	2059	
3860	0	930	780	808	2060	
3861	0	930	780	808	2060	
3862	0	930	781	809	2059	
3863	0	931	780	809	2058	
3864	0	930	780	810	2060	
3865	0	930	780	809	2060	
3866	0	930	780	809	2060	
3867	0	930	781	810	2057	
3868	0	931	780	809	2057	
3869	0	932	780	809	2058	
3870	0	931	780	809	2059	
3871	0	932	780	809	2058	
3872	0	932	780	809	2057	
3873	0	932	779	808	2058	
3874	0	933	781	809	2059	
3875	0	932	779	808	2059	
3876	0	932	778	808	2060	
3877	0	932	780	809	2063	
3878	0	933	780	808	2060	
3879	0	931	778	808	2059	
3880	0	932	780	807	2059	
3881	0	932	779	808	2056	
3882	0	931	780	809	2055	
3883	0	932	780	808	2055	
3884	0	931	780	809	2054	
3885	0	931	780	808	2055	
3886	0	930	780	809	2054	
3887	0	930	780	810	2052	
3888	0	932	780	810	2050	
3889	0	932	780	811	2046	
3890	0	930	780	810	2041	
3891	0	930	781	809	2032	
3892	0	931	781	810	2023	
3893	0	931	780	809	2018	
3894	0	932	780	809	2015	
3895	0	930	779	809	2013	
3896	0	931	779	809	2010	
3897	0	932	780	810	2008	
3898	0	933	780	810	2011	
3899	0	932	779	809	2011	
3900	0	932	779	810	2014	
3901	0	931	779	810	2011	
3902	0	931	779	809	2008	
3903	0	931	778	809	2003	
3904	0	932	778	809	1998	
3905	0	932	779	808	1995	
3906	0	932	780	808	1998	
3907	0	932	779	808	2001	
3908	0	932	779	808	2002	
3909	0	932	779	808	2000	
3910	0	932	779	809	1995	
3911	0	932	779	809	1995	
3912	0	933	780	809	2001	
3913	0	932	779	809	2005	
3914	0	932	779	810	2007	
3915	0	931	779	808	2008	
3916	0	932	780	809	2012	
3917	0	931	780	810	2017	
3918	0	930	780	809	2022	
3919	0	932	780	809	2027	
3920	0	932	780	809	2027	
3921	0	933	780	810	2024	
3922	0	934	782	811	2029	
3923	0	933	781	811	2032	
3924	0	932	781	810	2039	
3925	0	933	782	811	2051	
3926	0	932	781	811	2059	
3927	0	932	781	811	2064	
3928	0	932	781	811	2068	
3929	0	934	780	811	2073	
3930	0	934	781	811	2078	
3931	0	934	781	812	2080	
3932	0	933	782	812	2078	
3933	0	934	781	812	2078	
3934	0	934	781	812	2077	
3935	0	933	781	811	2075	
3936	0	933	781	812	2073	
3937	0	932	782	812	2073	
3938	0	933	782	811	2071	
3939	0	933	781	812	2071	
3940	0	933	781	810	2073	
3941	0	933	782	812	2072	
3942	0	932	781	812	2073	
3943	0	933	781	811	2072	
3944	0	933	781	810	2071	
3945	0	933	781	810	2070	
3946	0	933	781	811	2068	
3947	0	934	782	811	2069	
3948	0	933	780	810	2063	
3949	0	934	780	811	2055	
3950	0	934	781	812	2047	
3951	0	933	781	811	2035	
3952	0	933	781	811	2022	
3953	0	933	780	810	2004	
3954	0	933	779	811	1977	
3955	0	933	780	810	1932	
3956	0	934	780	811	1879	
3957	0	933	781	811	1827	
3958	0	933	780	811	1791	
3959	0	933	781	810	1784	
3960	0	932	780	810	1808	
3961	0	932	780	811	1843	
3962	0	932	780	810	1861	
3963	0	931	780	810	1857	
3964	0	932	781	810	1861	
3965	0	931	781	809	1902	
3966	0	932	780	809	1988	
3967	0	934	780	810	2111	
3968	0	933	781	810	2260	
3969	0	933	781	810	2412	
3970	0	932	780	810	2515	
3971	0	932	780	810	2541	
3972	0	934	781	811	2515	
3973	0	932	780	810	2459	
3974	0	933	780	810	2394	
3975	0	933	780	810	2325	
3976	0	932	780	809	2261	
3977	0	933	780	810	2209	
3978	0	932	781	810	2163	
3979	0	933	780	810	2116	
3980	0	932	781	809	2079	
3981	0	933	780	809	2052	
3982	0	933	780	810	2034	
3983	0	932	780	809	2026	
3984	0	934	780	809	2021	
3985	0	933	780	809	2020	
3986	0	934	780	809	2018	
3987	0	932	780	809	2018	
3988	0	932	780	810	2017	
3989	0	933	780	809	2017	
3990	0	931	779	809	2017	
3991	0	932	779	810	2014	
3992	0	932	780	809	2015	
3993	0	932	780	809	2012	
3994	0	932	779	808	2012	
3995	0	932	780	809	2013	
3996	0	932	780	809	2010	
3997	0	932	779	810	2011	
3998	0	932	780	810	2008	
3999	0	933	780	808	2008	
4000	0	932	779	809	2007	
4001	0	933	780	808	2007	
4002	0	934	779	809	2008	
4003	0	932	779	807	2006	
4004	0	932	780	808	2007	
4005	0	932	780	809	2008	
4006	0	931	779	809	2005	
4007	0	932	780	808	2005	
4008	0	930	780	809	2006	
4009	0	931	779	808	2002	
4010	0	931	779	808	2000	
4011	0	931	780	808	1999	
4012	0	932	781	808	1997	
4013	0	930	780	810	1999	
4014	0	932	779	809	1998	
4015	0	930	779	809	1997	
4016	0	932	780	810	1996	
4017	0	931	780	809	1995	
4018	0	932	781	813	1994	
4019	0	933	781	809	1996	
4020	0	931	781	809	1996	
4021	0	932	781	810	1993	
4022	0	930	781	811	1995	
4023	0	930	781	811	1992	
4024	0	932	781	810	1992	
4025	0	931	782	811	1992	
4026	0	931	781	811	1991	
4027	0	930	781	811	1991	
4028	0	930	781	811	1989	
4029	0	931	781	809	1988	
4030	0	930	780	810	1988	
4031	0	931	780	810	1987	
4032	0	931	780	811	1988	
4033	0	931	780	810	1987	
4034	0	932	780	809	1986	
4035	0	933	781	810	1987	
4036	0	932	780	809	1982	
4037	0	931	780	809	1981	
4038	0	930	780	809	1979	
4039	0	931	781	809	1980	
4040	0	931	780	809	1978	
4041	0	932	780	809	1977	
4042	0	931	780	809	1976	
4043	0	932	781	810	1977	
4044	0	932	781	809	1976	
4045	0	931	780	810	1974	
4046	0	931	779	809	1971	
4047	0	931	779	810	1972	
4048	0	932	779	810	1970	
4049	0	933	780	809	1969	
4050	0	932	779	809	1968	
4051	0	932	779	810	1965	
4052	0	931	779	810	1964	
4053	0	932	780	810	1960	
4054	0	933	780	809	1959	
4055	0	933	780	810	1958	
4056	0	933	779	810	1955	
4057	0	933	779	811	1953	
4058	0	932	778	812	1949	
4059	0	933	780	812	1947	
4060	0	932	780	812	1945	
4061	0	933	781	812	1943	
4062	0	934	782	813	1944	
4063	0	934	782	812	1943	
4064	0	933	781	812	1939	
4065	0	932	780	812	1936	
4066	0	932	781	812	1935	
4067	0	932	781	812	1934	
4068	0	933	781	812	1931	
4069	0	934	780	812	1929	
4070	0	933	781	812	1927	
4071	0	933	782	811	1924	
4072	0	932	781	811	1924	
4073	0	933	781	811	1921	
4074	0	934	780	811	1918	
4075	0	934	781	811	1916	
4076	0	934	781	811	1911	
4077	0	932	780	812	1912	
4078	0	933	780	811	1909	
4079	0	932	781	810	1909	
4080	0	934	780	811	1908	
4081	0	933	780	810	1908	
4082	0	932	779	810	1908	
4083	0	932	780	811	1906	
4084	0	934	779	809	1907	
4085	0	934	780	809	1906	
4086	0	934	780	809	1906	
4087	0	932	780	809	1907	
4088	0	932	779	809	1907	
4089	0	932	779	808	1907	
4090	0	933	779	809	1908	
4091	0	933	780	809	1909	
4092	0	932	779	810	1912	
4093	0	932	780	809	1913	
4094	0	933	780	809	1914	
4095	0	933	780	810	1920	
4096	0	932	779	808	1922	
4097	0	931	779	809	1927	
4098	0	932	779	809	1931	
4099	0	932	781	809	1937	
4100	0	931	779	808	1942	
4101	0	932	779	808	1950	
4102	0	934	779	809	1959	
4103	0	933	779	810	1967	
4104	0	933	781	809	1975	
4105	0	934	780	809	1985	
4106	0	932	779	808	1989	
4107	0	932	779	809	1999	
4108	0	931	779	808	2006	
4109	0	931	781	809	2015	
4110	0	932	779	809	2025	
4111	0	932	779	809	2033	
4112	0	930	779	810	2042	
4113	0	930	780	809	2048	
4114	0	932	780	810	2057	
4115	0	932	780	809	2064	
4116	0	932	779	810	2072	
4117	0	931	779	810	2080	
4118	0	932	779	809	2087	
4119	0	932	780	809	2092	
4120	0	931	780	809	2095	
4121	0	931	780	808	2100	
4122	0	933	781	810	2108	
4123	0	932	779	809	2110	
4124	0	932	779	809	2113	
4125	0	934	780	809	2120	
4126	0	932	779	808	2120	
4127	0	932	779	809	2123	
4128	0	932	778	810	2121	
4129	0	933	779	809	2127	
4130	0	933	779	809	2129	
4131	0	932	780	809	2131	
4132	0	932	779	810	2134	
4133	0	933	780	810	2134	
4134	0	933	779	809	2136	
4135	0	933	779	809	2134	
4136	0	933	780	809	2134	
4137	0	932	779	810	2136	
4138	0	932	780	809	2134	
4139	0	932	780	809	2134	
4140	0	932	780	809	2132	
4141	0	932	779	809	2131	
4142	0	934	780	810	2134	
4143	0	933	778	810	2133	
4144	0	933	779	809	2132	
4145	0	933	779	809	2131	
4146	0	933	779	809	2130	
4147	0	934	780	810	2132	
4148	0	933	779	810	2128	
4149	0	934	779	810	2126	
4150	0	934	779	809	2124	
4151	0	934	780	809	2121	
4152	0	934	779	809	2121	
4153	0	935	779	809	2117	
4154	0	935	780	809	2115	
4155	0	935	779	809	2113	
4156	0	934	779	809	2112	
4157	0	934	779	810	2111	
4158	0	934	779	809	2109	
4159	0	934	780	810	2109	
4160	0	934	779	811	2110	
4161	0	932	779	810	2107	
4162	0	932	779	810	2104	
4163	0	931	779	810	2101	
4164	0	932	779	810	2101	
4165	0	933	780	810	2103	
4166	0	932	779	809	2100	
4167	0	932	779	809	2099	
4168	0	931	778	809	2096	
4169	0	931	779	808	2094	
4170	0	931	778	808	2094	
4171	0	931	778	808	2092	
4172	0	931	778	809	2092	
4173	0	932	778	809	2090	
4174	0	932	779	808	2090	
4175	0	930	778	808	2088	
4176	0	929	778	809	2088	
4177	0	930	778	809	2088	
4178	0	931	778	808	2086	
4179	0	931	779	808	2086	
4180	0	932	778	808	2084	
4181	0	931	777	808	2082	
4182	0	931	779	808	2082	
4183	0	931	778	808	2081	
4184	0	932	780	808	2080	
4185	0	931	778	808	2079	
4186	0	930	779	809	2079	
4187	0	931	779	810	2080	
4188	0	932	778	810	2080	
4189	0	932	780	809	2080	
4190	0	932	779	809	2080	
4191	0	931	780	809	2080	
4192	0	932	779	809	2081	
4193	0	931	778	807	2081	
4194	0	933	779	809	2081	
4195	0	932	779	809	2080	
4196	0	930	781	810	2080	
4197	0	930	781	811	2081	
4198	0	931	781	811	2079	
4199	0	930	781	811	2080	
4200	0	931	779	810	2080	
4201	0	932	779	809	2080	
4202	0	932	779	811	2080	
4203	0	931	778	810	2083	
4204	0	932	779	808	2079	
4205	0	932	779	809	2080	
4206	0	933	780	809	2081	
4207	0	933	780	810	2082	
4208	0	932	778	810	2085	
4209	0	933	779	808	2084	
4210	0	936	778	809	2084	
4211	0	934	778	808	2084	
4212	0	933	778	809	2084	
4213	0	933	779	808	2083	
4214	0	934	780	808	2082	
4215	0	933	778	808	2081	
4216	0	932	779	808	2081	
4217	0	933	778	808	2082	
4218	0	933	778	808	2082	
4219	0	933	778	808	2083	
4220	0	932	777	808	2080	
4221	0	933	779	808	2081	
4222	0	934	777	808	2082	
4223	0	933	778	807	2081	
4224	0	934	778	808	2082	
4225	0	933	777	807	2084	
4226	0	932	778	807	2083	
4227	0	932	777	808	2084	
4228	0	934	778	808	2083	
4229	0	934	778	808	2082	
4230	0	933	778	808	2082	
4231	0	933	779	808	2083	
4232	0	934	778	808	2084	
4233	0	934	778	809	2083	
4234	0	934	779	808	2082	
4235	0	935	779	809	2086	
4236	0	934	778	809	2084	
4237	0	934	779	810	2086	
4238	0	934	777	810	2085	
4239	0	934	778	810	2084	
4240	0	933	777	809	2083	
4241	0	932	778	809	2082	
4242	0	933	778	811	2083	
4243	0	932	778	810	2083	
4244	0	933	778	809	2083	
4245	0	932	778	809	2082	
4246	0	933	777	809	2082	
4247	0	932	777	809	2082	
4248	0	932	778	810	2079	
4249	0	932	779	810	2080	
4250	0	932	778	809	2078	
4251	0	932	777	810	2078	
4252	0	932	778	810	2077	
4253	0	932	778	809	2077	
4254	0	931	778	809	2077	
4255	0	931	777	809	2077	
4256	0	932	779	809	2077	
4257	0	933	778	809	2079	
4258	0	933	778	809	2078	
4259	0	933	778	810	2079	
4260	0	935	779	811	2081	
4261	0	933	778	809	2078	
4262	0	934	779	812	2077	
4263	0	933	778	810	2078	
4264	0	932	778	808	2076	
4265	0	932	778	809	2075	
4266	0	932	779	808	2075	
4267	0	932	778	809	2076	
4268	0	932	779	809	2074	
4269	0	931	779	808	2074	
4270	0	932	778	808	2073	
4271	0	933	779	809	2072	
4272	0	932	778	809	2074	
4273	0	933	779	810	2071	
4274	0	934	779	811	2073	
4275	0	933	779	808	2071	
4276	0	934	779	809	2070	
4277	0	932	778	810	2071	
4278	0	933	779	810	2069	
4279	0	934	779	810	2071	
4280	0	932	779	808	2070	
4281	0	933	779	808	2069	
4282	0	932	780	809	2071	
4283	0	933	779	809	2068	
4284	0	933	780	811	2067	
4285	0	934	780	810	2067	
4286	0	932	779	808	2066	
4287	0	932	779	808	2068	
4288	0	932	779	809	2071	
4289	0	933	779	809	2067	
4290	0	932	778	808	2066	
4291	0	932	779	808	2065	
4292	0	933	778	809	2066	
4293	0	933	778	808	2065	
4294	0	933	779	808	2064	
4295	0	932	779	808	2064	
4296	0	932	778	808	2063	
4297	0	931	778	808	2063	
4298	0	931	778	807	2062	
4299	0	932	779	808	2061	
4300	0	932	778	808	2061	
4301	0	932	778	808	2063	
4302	0	932	778	809	2064	
4303	0	931	778	808	2063	
4304	0	931	779	809	2063	
4305	0	932	779	809	2065	
4306	0	930	778	808	2062	
4307	0	930	778	809	2061	
4308	0	931	779	809	2060	
4309	0	931	779	809	2059	
4310	0	930	778	808	2060	
4311	0	929	778	810	2059	
4312	0	930	778	809	2061	
4313	0	929	779	809	2060	
4314	0	931	779	810	2060	
4315	0	930	779	810	2059	
4316	0	931	779	810	2059	
4317	0	931	778	809	2062	
4318	0	932	778	810	2060	
4319	0	932	779	810	2059	
4320	0	932	779	810	2060	
4321	0	930	778	810	2059	
4322	0	931	779	810	2061	
4323	0	932	777	810	2059	
4324	0	932	778	809	2058	
4325	0	933	779	810	2061	
4326	0	934	780	809	2057	
4327	0	933	778	809	2057	
4328	0	932	779	810	2058	
4329	0	934	778	809	2057	
4330	0	934	778	809	2055	
4331	0	932	778	809	2054	
4332	0	933	778	808	2057	
4333	0	933	778	809	2055	
4334	0	934	779	809	2054	
4335	0	934	779	808	2054	
4336	0	933	779	809	2053	
4337	0	932	778	809	2053	
4338	0	932	779	809	2053	
4339	0	933	779	809	2052	
4340	0	934	778	810	2052	
4341	0	933	779	808	2051	
4342	0	933	778	809	2052	
4343	0	933	779	810	2054	
4344	0	933	779	809	2052	
4345	0	934	780	809	2054	
4346	0	933	781	808	2051	
4347	0	932	778	808	2052	
4348	0	932	778	808	2049	
4349	0	933	778	808	2046	
4350	0	934	779	809	2039	
4351	0	934	779	808	2030	
4352	0	934	777	808	2022	
4353	0	934	778	808	2016	
4354	0	933	778	808	2012	
4355	0	933	778	807	2011	
4356	0	932	779	808	2008	
4357	0	932	777	807	2007	
4358	0	932	779	808	2006	
4359	0	932	778	808	2008	
4360	0	932	779	808	2008	
4361	0	933	779	808	2006	
4362	0	933	778	808	2007	
4363	0	932	778	808	2003	
4364	0	932	778	810	1996	
4365	0	932	778	808	1993	
4366	0	931	778	809	1997	
4367	0	932	778	808	2002	
4368	0	931	778	808	2001	
4369	0	931	778	808	1998	
4370	0	933	780	809	1996	
4371	0	932	780	808	1994	
4372	0	932	779	807	2000	
4373	0	932	779	809	2004	
4374	0	933	778	807	2004	
4375	0	933	778	808	2005	
4376	0	933	778	808	2009	
4377	0	934	778	808	2016	
4378	0	933	777	808	2020	
4379	0	933	778	807	2024	
4380	0	932	778	807	2023	
4381	0	932	778	808	2023	
4382	0	931	778	807	2028	
4383	0	932	778	807	2033	
4384	0	932	778	806	2041	
4385	0	933	778	807	2049	
4386	0	934	778	808	2061	
4387	0	932	777	808	2065	
4388	0	934	777	807	2069	
4389	0	933	778	807	2073	
4390	0	933	779	807	2076	
4391	0	933	777	807	2078	
4392	0	932	778	807	2079	
4393	0	933	777	807	2079	
4394	0	934	778	807	2078	
4395	0	933	778	807	2077	
4396	0	934	777	807	2076	
4397	0	933	778	807	2075	
4398	0	934	777	807	2073	
4399	0	935	778	807	2074	
4400	0	934	778	807	2073	
4401	0	934	777	808	2073	
4402	0	933	778	808	2073	
4403	0	933	778	808	2071	
4404	0	934	779	809	2071	
4405	0	933	779	808	2070	
4406	0	932	779	808	2072	
4407	0	933	779	808	2069	
4408	0	932	779	808	2063	
4409	0	933	780	808	2054	
4410	0	934	780	809	2045	
4411	0	933	779	809	2030	
4412	0	933	778	808	2019	
4413	0	934	779	810	1999	
4414	0	934	779	809	1962	
4415	0	933	781	808	1916	
4416	0	932	777	809	1862	
4417	0	934	777	808	1816	
4418	0	934	778	808	1788	
4419	0	933	778	808	1793	
4420	0	933	777	809	1821	
4421	0	933	777	809	1854	
4422	0	933	778	808	1862	
4423	0	933	778	807	1855	
4424	0	933	778	808	1871	
4425	0	934	779	808	1927	
4426	0	933	779	808	2031	
4427	0	932	779	808	2161	
4428	0	932	779	808	2313	
4429	0	932	779	810	2454	
4430	0	932	779	809	2532	
4431	0	933	778	808	2535	
4432	0	933	778	809	2494	
4433	0	933	778	808	2435	
4434	0	934	778	808	2368	
4435	0	934	778	808	2299	
4436	0	933	778	808	2241	
4437	0	933	777	808	2190	
4438	0	933	777	808	2144	
4439	0	933	778	808	2103	
4440	0	933	778	808	2069	
4441	0	934	778	809	2045	
4442	0	932	778	808	2032	
4443	0	932	778	808	2023	
4444	0	935	778	806	2019	
4445	0	933	780	809	2019	
4446	0	932	778	808	2016	
4447	0	933	778	808	2016	
4448	0	933	778	809	2015	
4449	0	935	778	808	2015	
4450	0	933	779	810	2018	
4451	0	932	779	808	2014	
4452	0	932	778	809	2012	
4453	0	932	779	808	2011	
4454	0	933	779	810	2011	
4455	0	933	779	809	2012	
4456	0	933	778	808	2010	
4457	0	932	778	808	2010	
4458	0	932	778	808	2007	
4459	0	933	778	808	2007	
4460	0	932	777	807	2008	
4461	0	933	778	807	2007	
4462	0	932	778	808	2006	
4463	0	932	778	808	2004	
4464	0	932	779	809	2002	
4465	0	932	779	808	2003	
4466	0	931	778	809	2004	
4467	0	931	778	809	2005	
4468	0	931	778	809	2003	
4469	0	932	778	810	2001	
4470	0	931	778	809	2000	
4471	0	932	778	809	1998	
4472	0	932	779	809	1999	
4473	0	932	778	808	1997	
4474	0	932	779	809	1998	
4475	0	932	779	809	2001	
4476	0	932	778	808	1997	
4477	0	934	779	809	1997	
4478	0	932	778	806	1999	
4479	0	932	778	809	1995	
4480	0	933	779	808	1998	
4481	0	932	778	807	1996	
4482	0	932	778	807	1996	
4483	0	931	778	807	1993	
4484	0	931	778	809	1991	
4485	0	932	778	808	1990	
4486	0	931	778	809	1989	
4487	0	930	778	808	1989	
4488	0	931	778	808	1988	
4489	0	931	779	809	1987	
4490	0	930	778	808	1985	
4491	0	932	778	808	1985	
4492	0	932	778	807	1985	
4493	0	932	778	808	1984	
4494	0	932	778	810	1982	
4495	0	932	778	807	1980	
4496	0	933	781	807	1979	
4497	0	932	779	809	1977	
4498	0	932	778	808	1978	
4499	0	930	779	807	1977	
4500	0	934	778	808	1980	
4501	0	933	777	808	1977	
4502	0	932	777	808	1976	
4503	0	932	777	808	1974	
4504	0	932	778	809	1972	
4505	0	933	777	808	1972	
4506	0	933	777	809	1972	
4507	0	934	777	808	1970	
4508	0	934	777	808	1968	
4509	0	933	777	809	1967	
4510	0	934	777	808	1966	
4511	0	933	777	809	1963	
4512	0	934	777	809	1962	
4513	0	933	778	808	1959	
4514	0	933	779	809	1959	
4515	0	934	778	809	1958	
4516	0	935	778	809	1956	
4517	0	933	779	810	1954	
4518	0	933	779	810	1950	
4519	0	935	779	810	1947	
4520	0	935	780	811	1947	
4521	0	934	780	810	1944	
4522	0	933	779	811	1942	
4523	0	933	779	810	1939	
4524	0	935	780	811	1938	
4525	0	932	780	810	1935	
4526	0	932	779	810	1934	
4527	0	935	780	811	1934	
4528	0	933	779	809	1929	
4529	0	933	779	810	1926	
4530	0	934	778	809	1923	
4531	0	932	779	809	1921	
4532	0	934	780	810	1921	
4533	0	932	778	808	1919	
4534	0	931	779	809	1916	
4535	0	933	779	808	1913	
4536	0	932	777	809	1911	
4537	0	932	777	808	1909	
4538	0	931	778	808	1906	
4539	0	931	779	809	1906	
4540	0	931	778	808	1905	
4541	0	932	778	807	1906	
4542	0	931	778	807	1905	
4543	0	931	778	807	1903	
4544	0	930	778	809	1902	
4545	0	930	778	808	1903	
4546	0	931	778	809	1903	
4547	0	930	777	808	1903	
4548	0	930	778	807	1904	
4549	0	930	778	808	1906	
4550	0	930	778	807	1906	
4551	0	934	778	807	1907	
4552	0	931	777	806	1908	
4553	0	930	778	806	1910	
4554	0	931	778	806	1913	
4555	0	932	778	807	1919	
4556	0	931	778	806	1920	
4557	0	930	778	807	1924	
4558	0	930	777	806	1931	
4559	0	930	778	807	1933	
4560	0	932	779	808	1942	
4561	0	931	778	808	1948	
4562	0	933	778	808	1955	
4563	0	931	779	808	1963	
4564	0	931	779	809	1974	
4565	0	932	780	808	1980	
4566	0	930	779	809	1989	
4567	0	932	779	808	1998	
4568	0	932	779	808	2006	
4569	0	931	780	809	2017	
4570	0	933	779	809	2026	
4571	0	932	779	809	2034	
4572	0	932	779	808	2042	
4573	0	932	779	809	2048	
4574	0	931	780	809	2057	
4575	0	933	780	808	2064	
4576	0	932	779	808	2072	
4577	0	934	780	808	2081	
4578	0	933	779	809	2088	
4579	0	932	780	810	2094	
4580	0	933	779	809	2096	
4581	0	935	779	809	2102	
4582	0	933	779	808	2107	
4583	0	933	780	809	2110	
4584	0	935	781	810	2116	
4585	0	935	781	809	2122	
4586	0	934	780	809	2124	
4587	0	933	780	808	2127	
4588	0	934	780	809	2130	
4589	0	934	779	809	2133	
4590	0	934	779	808	2136	
4591	0	935	778	807	2136	
4592	0	934	778	808	2139	
4593	0	934	779	807	2140	
4594	0	934	778	808	2140	
4595	0	933	778	807	2139	
4596	0	935	778	808	2139	
4597	0	935	778	807	2141	
4598	0	934	778	808	2140	
4599	0	934	778	808	2139	
4600	0	935	778	808	2138	
4601	0	934	778	807	2137	
4602	0	934	778	808	2140	
4603	0	933	777	807	2136	
4604	0	935	778	808	2133	
4605	0	936	778	808	2136	
4606	0	934	776	807	2133	
4607	0	933	777	807	2132	
4608	0	934	778	807	2133	
4609	0	933	778	807	2129	
4610	0	933	778	807	2128	
4611	0	934	778	808	2127	
4612	0	934	778	807	2126	
4613	0	933	779	808	2123	
4614	0	934	779	809	2120	
4615	0	934	778	808	2119	
4616	0	933	779	808	2118	
4617	0	933	778	808	2117	
4618	0	932	778	808	2114	
4619	0	934	779	809	2113	
4620	0	933	778	807	2112	
4621	0	935	780	808	2109	
4622	0	935	779	807	2108	
4623	0	933	778	808	2106	
4624	0	935	779	809	2107	
4625	0	933	779	808	2104	
4626	0	933	778	808	2101	
4627	0	932	779	808	2100	
4628	0	932	779	808	2102	
4629	0	933	779	809	2100	
4630	0	933	779	809	2096	
4631	0	933	779	809	2094	
4632	0	933	779	808	2094	
4633	0	932	779	808	2095	
