# OpenSignals Text File Format. Version 1
# {"00:07:80:4C:2A:F7": {"position": 0, "device": "bioplux", "device name": "00:07:80:4C:2A:F7", "device connection": "BTH00:07:80:4C:2A:F7", "sampling rate": 1000, "resolution": [12, 12, 12, 12], "firmware version": 512, "comments": "", "keywords": "", "mode": 0, "sync interval": 2, "date": "2024-3-28", "time": "19:25:19.849", 
"channels": [1, 2, 3, 4], "sensor": ["XYZ", "XYZ", "XYZ", "ECG"], "label": ["x", "y", "z", "ECG"], 
"column": ["nSeq", "DI", "x", "y", "z", "ECG"], "special": [{}, {}, {}, {}], "digital IO": [0, 1], "convertedValues": 0}}
# EndOfHeader
0	0	869	825	891	2056	
1	0	870	825	891	2057	
2	0	871	825	890	2058	
3	0	870	826	891	2058	
4	0	870	825	890	2058	
5	0	869	825	891	2057	
6	0	870	825	891	2056	
7	0	870	825	891	2056	
8	0	870	826	892	2053	
9	0	870	825	890	2053	
10	0	869	825	890	2051	
11	0	871	826	891	2051	
12	0	871	825	890	2052	
13	0	870	826	891	2051	
14	0	869	825	890	2054	
15	0	870	825	890	2055	
16	0	869	826	891	2056	
17	0	869	825	891	2055	
18	0	869	825	891	2056	
19	0	869	828	890	2056	
20	0	868	826	891	2058	
21	0	870	826	891	2057	
22	0	870	826	892	2056	
23	0	869	826	891	2058	
24	0	870	826	891	2059	
25	0	870	826	890	2056	
26	0	870	825	891	2058	
27	0	870	826	891	2060	
28	0	870	826	892	2061	
29	0	870	826	891	2060	
30	0	870	826	891	2059	
31	0	870	825	891	2058	
32	0	871	825	891	2057	
33	0	870	827	891	2056	
34	0	870	826	891	2055	
35	0	870	825	890	2053	
36	0	870	825	890	2052	
37	0	870	826	890	2050	
38	0	869	826	891	2049	
39	0	869	827	890	2048	
40	0	869	826	891	2047	
41	0	868	826	890	2044	
42	0	870	826	890	2043	
43	0	869	826	891	2040	
44	0	868	825	890	2035	
45	0	868	825	890	2031	
46	0	869	825	890	2028	
47	0	870	826	890	2026	
48	0	869	826	891	2022	
49	0	868	826	891	2022	
50	0	869	826	890	2020	
51	0	870	826	891	2020	
52	0	871	825	890	2021	
53	0	870	825	891	2019	
54	0	871	825	891	2019	
55	0	870	825	891	2016	
56	0	871	825	891	2016	
57	0	870	826	890	2016	
58	0	870	826	891	2017	
59	0	871	826	891	2018	
60	0	871	826	891	2015	
61	0	870	825	891	2016	
62	0	871	826	891	2016	
63	0	871	826	891	2013	
64	0	871	826	891	2014	
65	0	869	825	891	2012	
66	0	870	825	891	2012	
67	0	871	826	891	2010	
68	0	870	826	891	2005	
69	0	870	825	891	2000	
70	0	869	826	892	1998	
71	0	868	826	890	1996	
72	0	870	826	889	1995	
73	0	869	827	890	1997	
74	0	870	826	890	1998	
75	0	869	826	891	2001	
76	0	870	827	891	2002	
77	0	871	825	890	2003	
78	0	870	826	891	2005	
79	0	870	827	891	2005	
80	0	870	826	890	2002	
81	0	869	826	891	2003	
82	0	871	826	891	2004	
83	0	870	826	891	2006	
84	0	869	826	890	2006	
85	0	869	826	890	2008	
86	0	870	825	891	2010	
87	0	870	825	890	2013	
88	0	869	824	891	2015	
89	0	869	825	891	2016	
90	0	870	825	891	2016	
91	0	870	825	891	2016	
92	0	870	825	891	2016	
93	0	869	825	892	2018	
94	0	868	826	890	2018	
95	0	869	826	890	2020	
96	0	871	825	890	2022	
97	0	871	825	890	2024	
98	0	870	825	891	2027	
99	0	870	826	890	2027	
100	0	870	826	890	2027	
101	0	871	826	890	2030	
102	0	871	826	890	2034	
103	0	871	826	891	2038	
104	0	870	826	890	2042	
105	0	870	826	890	2045	
106	0	870	826	890	2049	
107	0	870	826	890	2053	
108	0	868	826	890	2057	
109	0	869	825	891	2060	
110	0	869	826	891	2064	
111	0	869	826	891	2067	
112	0	870	826	890	2069	
113	0	870	825	890	2071	
114	0	869	825	890	2072	
115	0	869	825	890	2073	
116	0	869	825	891	2076	
117	0	870	825	890	2078	
118	0	868	826	891	2080	
119	0	869	826	890	2081	
120	0	869	826	890	2082	
121	0	869	825	890	2084	
122	0	870	825	890	2085	
123	0	869	825	891	2087	
124	0	870	825	891	2087	
125	0	869	825	891	2086	
126	0	870	825	891	2086	
127	0	870	825	890	2085	
128	0	870	825	891	2084	
129	0	870	825	890	2083	
130	0	868	825	891	2083	
131	0	869	825	891	2082	
132	0	870	825	890	2082	
133	0	869	825	892	2083	
134	0	869	825	891	2082	
135	0	869	826	891	2080	
136	0	869	825	891	2079	
137	0	869	825	891	2079	
138	0	870	826	892	2082	
139	0	869	825	891	2080	
140	0	869	826	890	2079	
141	0	869	825	891	2079	
142	0	870	826	891	2081	
143	0	869	825	891	2082	
144	0	870	827	891	2084	
145	0	869	825	890	2083	
146	0	870	826	891	2085	
147	0	869	826	891	2086	
148	0	869	825	891	2085	
149	0	869	825	891	2082	
150	0	868	825	891	2079	
151	0	869	825	890	2078	
152	0	871	826	890	2078	
153	0	869	825	891	2078	
154	0	870	825	891	2076	
155	0	871	825	890	2074	
156	0	870	825	890	2073	
157	0	871	826	890	2074	
158	0	870	825	891	2073	
159	0	869	825	891	2071	
160	0	869	825	891	2067	
161	0	870	825	891	2061	
162	0	870	825	891	2057	
163	0	868	825	891	2053	
164	0	869	825	891	2047	
165	0	869	826	890	2038	
166	0	869	825	890	2033	
167	0	870	826	890	2028	
168	0	870	825	891	2019	
169	0	870	825	890	2008	
170	0	870	825	890	1992	
171	0	869	825	891	1974	
172	0	870	825	890	1952	
173	0	869	825	891	1928	
174	0	871	826	891	1900	
175	0	869	825	890	1869	
176	0	869	825	891	1843	
177	0	870	827	890	1821	
178	0	870	826	891	1804	
179	0	870	826	890	1790	
180	0	870	826	891	1789	
181	0	869	825	891	1794	
182	0	868	826	891	1808	
183	0	868	826	892	1826	
184	0	867	825	891	1843	
185	0	868	825	891	1858	
186	0	868	826	891	1867	
187	0	870	825	890	1869	
188	0	868	825	891	1869	
189	0	869	826	892	1869	
190	0	869	826	891	1869	
191	0	869	826	891	1881	
192	0	870	826	891	1903	
193	0	868	825	891	1934	
194	0	870	826	892	1976	
195	0	869	826	890	2026	
196	0	870	826	890	2089	
197	0	870	826	891	2157	
198	0	869	825	891	2226	
199	0	871	826	891	2297	
200	0	870	826	890	2366	
201	0	871	826	891	2432	
202	0	872	826	892	2481	
203	0	870	826	891	2510	
204	0	871	826	892	2522	
205	0	870	826	891	2516	
206	0	870	826	891	2505	
207	0	872	826	891	2486	
208	0	869	825	891	2461	
209	0	871	827	892	2436	
210	0	870	826	891	2405	
211	0	869	826	890	2373	
212	0	870	826	891	2340	
213	0	869	825	891	2309	
214	0	870	826	891	2282	
215	0	870	825	891	2254	
216	0	869	826	891	2229	
217	0	870	826	890	2207	
218	0	869	826	891	2185	
219	0	868	826	890	2159	
220	0	869	827	891	2137	
221	0	870	827	890	2114	
222	0	870	826	890	2096	
223	0	869	825	891	2080	
224	0	869	826	891	2069	
225	0	869	826	890	2056	
226	0	870	826	890	2048	
227	0	870	826	892	2043	
228	0	869	825	891	2037	
229	0	870	826	891	2035	
230	0	869	826	890	2031	
231	0	869	825	890	2029	
232	0	870	827	891	2028	
233	0	870	826	891	2028	
234	0	870	825	890	2026	
235	0	870	826	891	2028	
236	0	870	826	890	2028	
237	0	870	827	891	2027	
238	0	871	826	891	2030	
239	0	869	825	890	2029	
240	0	869	826	891	2031	
241	0	870	824	891	2030	
242	0	870	823	891	2031	
243	0	869	825	891	2031	
244	0	870	826	891	2032	
245	0	869	826	891	2028	
246	0	869	826	891	2029	
247	0	870	826	891	2028	
248	0	868	824	891	2026	
249	0	870	826	892	2026	
250	0	869	825	891	2022	
251	0	871	826	891	2022	
252	0	870	826	892	2023	
253	0	869	825	891	2020	
254	0	870	827	891	2020	
255	0	870	826	890	2016	
256	0	870	826	890	2016	
257	0	870	826	891	2016	
258	0	868	825	891	2016	
259	0	868	826	891	2015	
260	0	870	826	892	2014	
261	0	870	825	891	2016	
262	0	870	826	891	2015	
263	0	870	826	892	2016	
264	0	869	825	891	2014	
265	0	869	825	891	2013	
266	0	869	826	890	2013	
267	0	870	827	890	2011	
268	0	869	825	890	2008	
269	0	869	826	890	2007	
270	0	869	826	890	2005	
271	0	869	826	892	2002	
272	0	870	824	890	2005	
273	0	869	825	890	2007	
274	0	870	826	890	2006	
275	0	869	826	890	2006	
276	0	870	825	891	2006	
277	0	869	823	891	2005	
278	0	869	825	891	2005	
279	0	870	825	891	2003	
280	0	869	825	891	2004	
281	0	870	825	891	2004	
282	0	870	824	891	2005	
283	0	870	825	891	2006	
284	0	870	825	890	2004	
285	0	869	826	890	2003	
286	0	870	826	891	2004	
287	0	870	825	891	2003	
288	0	869	826	891	2003	
289	0	870	826	891	2001	
290	0	870	825	890	2001	
291	0	869	825	891	2000	
292	0	870	826	891	2000	
293	0	870	826	891	2000	
294	0	870	826	890	1998	
295	0	869	825	891	1999	
296	0	869	826	892	1999	
297	0	869	824	891	2000	
298	0	868	826	891	2001	
299	0	868	825	891	1998	
300	0	869	826	891	1996	
301	0	870	826	891	1996	
302	0	869	827	890	1996	
303	0	869	826	891	1997	
304	0	869	826	891	1996	
305	0	869	826	890	1997	
306	0	868	825	891	1998	
307	0	868	826	890	1999	
308	0	868	825	891	1999	
309	0	868	825	890	1996	
310	0	869	825	891	1994	
311	0	870	825	891	1994	
312	0	871	826	891	1994	
313	0	870	826	891	1994	
314	0	870	825	891	1994	
315	0	869	825	891	1993	
316	0	869	825	891	1993	
317	0	870	826	891	1992	
318	0	869	826	891	1994	
319	0	869	825	892	1993	
320	0	869	826	891	1993	
321	0	869	825	891	1994	
322	0	870	826	892	1994	
323	0	869	826	891	1993	
324	0	870	826	891	1994	
325	0	870	826	891	1995	
326	0	869	826	891	1994	
327	0	870	826	891	1995	
328	0	871	826	891	1995	
329	0	870	826	890	1993	
330	0	870	827	891	1994	
331	0	871	826	891	1992	
332	0	871	826	891	1992	
333	0	871	826	891	1992	
334	0	870	826	891	1990	
335	0	870	826	892	1992	
336	0	870	826	892	1991	
337	0	869	826	891	1991	
338	0	870	827	891	1993	
339	0	870	826	890	1990	
340	0	869	826	890	1990	
341	0	869	826	890	1990	
342	0	870	827	890	1990	
343	0	869	826	891	1991	
344	0	869	826	890	1988	
345	0	869	826	890	1988	
346	0	870	826	890	1987	
347	0	870	826	891	1987	
348	0	868	826	890	1986	
349	0	870	826	891	1986	
350	0	870	825	891	1983	
351	0	870	825	891	1984	
352	0	870	826	891	1985	
353	0	869	825	891	1985	
354	0	870	826	891	1985	
355	0	869	825	891	1983	
356	0	870	825	890	1981	
357	0	870	826	891	1981	
358	0	870	825	891	1982	
359	0	869	826	890	1980	
360	0	869	825	892	1983	
361	0	870	826	891	1981	
362	0	869	826	890	1980	
363	0	869	825	891	1978	
364	0	870	826	891	1979	
365	0	869	825	890	1976	
366	0	870	825	890	1976	
367	0	870	826	891	1977	
368	0	868	825	891	1974	
369	0	870	826	891	1973	
370	0	868	826	890	1970	
371	0	869	826	890	1970	
372	0	870	826	890	1969	
373	0	870	825	891	1969	
374	0	868	825	891	1968	
375	0	870	825	892	1970	
376	0	870	826	894	1968	
377	0	870	826	891	1966	
378	0	870	826	891	1969	
379	0	870	826	891	1969	
380	0	869	825	891	1970	
381	0	870	826	890	1968	
382	0	870	825	891	1968	
383	0	869	826	891	1970	
384	0	871	826	891	1970	
385	0	871	826	890	1968	
386	0	870	826	890	1968	
387	0	871	827	891	1968	
388	0	869	826	891	1969	
389	0	869	826	890	1967	
390	0	870	825	891	1966	
391	0	870	825	891	1964	
392	0	870	825	891	1963	
393	0	870	826	891	1963	
394	0	870	826	890	1959	
395	0	869	826	891	1958	
396	0	870	826	890	1956	
397	0	869	827	890	1957	
398	0	868	826	891	1959	
399	0	869	826	891	1956	
400	0	869	825	891	1957	
401	0	869	826	890	1958	
402	0	870	825	891	1958	
403	0	869	825	891	1959	
404	0	869	825	891	1958	
405	0	869	826	891	1957	
406	0	868	826	891	1955	
407	0	868	825	890	1955	
408	0	868	825	891	1955	
409	0	867	825	891	1954	
410	0	868	825	891	1953	
411	0	869	825	891	1952	
412	0	869	826	891	1952	
413	0	869	825	891	1951	
414	0	870	825	891	1948	
415	0	869	825	891	1945	
416	0	870	825	891	1944	
417	0	871	826	891	1944	
418	0	869	825	891	1943	
419	0	869	825	891	1941	
420	0	869	825	892	1942	
421	0	869	826	893	1940	
422	0	870	825	891	1940	
423	0	870	826	891	1942	
424	0	868	825	890	1940	
425	0	868	824	891	1941	
426	0	869	827	891	1938	
427	0	869	826	890	1938	
428	0	869	826	891	1940	
429	0	869	825	890	1938	
430	0	869	824	891	1938	
431	0	870	826	892	1937	
432	0	870	825	890	1935	
433	0	870	827	891	1936	
434	0	869	826	890	1933	
435	0	869	826	890	1933	
436	0	870	826	891	1932	
437	0	870	826	891	1931	
438	0	869	825	891	1927	
439	0	870	826	891	1928	
440	0	870	826	891	1926	
441	0	870	826	891	1925	
442	0	869	826	891	1925	
443	0	870	826	891	1926	
444	0	871	826	892	1927	
445	0	869	827	890	1924	
446	0	869	826	891	1925	
447	0	870	826	891	1926	
448	0	868	825	891	1924	
449	0	871	825	890	1924	
450	0	870	825	891	1925	
451	0	869	826	891	1924	
452	0	870	827	891	1926	
453	0	870	825	891	1927	
454	0	869	825	891	1926	
455	0	869	825	891	1923	
456	0	869	825	891	1923	
457	0	870	827	891	1923	
458	0	869	825	891	1925	
459	0	869	825	891	1924	
460	0	869	825	891	1926	
461	0	869	826	890	1928	
462	0	870	826	890	1928	
463	0	869	825	891	1929	
464	0	868	825	891	1928	
465	0	868	826	891	1927	
466	0	869	826	891	1926	
467	0	870	827	891	1926	
468	0	869	825	891	1928	
469	0	870	826	891	1928	
470	0	868	826	890	1927	
471	0	869	826	890	1928	
472	0	870	827	891	1930	
473	0	870	826	890	1931	
474	0	870	825	890	1931	
475	0	870	825	891	1933	
476	0	871	827	891	1931	
477	0	871	827	890	1931	
478	0	869	825	891	1933	
479	0	870	826	891	1933	
480	0	870	826	891	1935	
481	0	869	826	891	1937	
482	0	870	826	891	1941	
483	0	870	826	891	1944	
484	0	871	825	891	1943	
485	0	870	825	890	1944	
486	0	870	826	890	1948	
487	0	870	828	890	1953	
488	0	870	827	891	1957	
489	0	870	827	891	1961	
490	0	871	827	891	1964	
491	0	870	826	891	1966	
492	0	870	827	891	1969	
493	0	870	826	892	1974	
494	0	869	825	891	1975	
495	0	870	826	891	1978	
496	0	870	826	891	1982	
497	0	871	826	892	1987	
498	0	871	826	893	1989	
499	0	870	825	891	1993	
500	0	870	825	891	2000	
501	0	870	826	891	2005	
502	0	869	826	890	2008	
503	0	869	826	891	2014	
504	0	868	825	890	2016	
505	0	870	825	891	2022	
506	0	870	826	892	2025	
507	0	870	825	890	2029	
508	0	869	826	891	2033	
509	0	868	825	890	2036	
510	0	869	826	891	2039	
511	0	869	825	890	2043	
512	0	870	826	891	2047	
513	0	868	826	891	2049	
514	0	870	826	891	2052	
515	0	872	825	891	2053	
516	0	870	825	891	2057	
517	0	870	826	892	2061	
518	0	870	826	891	2062	
519	0	870	827	891	2068	
520	0	869	826	890	2070	
521	0	870	826	891	2074	
522	0	871	826	891	2080	
523	0	870	827	891	2083	
524	0	870	826	891	2088	
525	0	870	826	890	2087	
526	0	870	826	891	2090	
527	0	871	826	891	2094	
528	0	870	825	891	2094	
529	0	870	825	891	2095	
530	0	870	825	891	2096	
531	0	871	824	891	2098	
532	0	870	826	891	2102	
533	0	869	825	891	2102	
534	0	870	826	891	2105	
535	0	869	825	890	2105	
536	0	869	826	891	2108	
537	0	869	826	891	2110	
538	0	869	826	891	2112	
539	0	869	826	890	2113	
540	0	869	825	891	2118	
541	0	869	826	891	2118	
542	0	870	827	890	2119	
543	0	869	825	891	2120	
544	0	869	826	891	2121	
545	0	870	825	891	2121	
546	0	870	825	891	2120	
547	0	869	826	891	2122	
548	0	869	826	891	2124	
549	0	870	826	891	2126	
550	0	869	825	891	2127	
551	0	869	826	891	2127	
552	0	870	827	892	2129	
553	0	870	825	891	2129	
554	0	870	825	891	2128	
555	0	869	825	892	2127	
556	0	869	826	891	2127	
557	0	869	826	891	2127	
558	0	869	826	891	2127	
559	0	869	826	890	2126	
560	0	868	826	891	2126	
561	0	869	826	891	2126	
562	0	869	826	891	2127	
563	0	869	825	891	2127	
564	0	870	825	891	2127	
565	0	870	825	891	2128	
566	0	870	826	891	2129	
567	0	870	826	891	2130	
568	0	869	826	890	2128	
569	0	869	826	891	2129	
570	0	871	825	891	2127	
571	0	869	825	891	2127	
572	0	870	825	891	2126	
573	0	870	824	891	2126	
574	0	871	825	891	2127	
575	0	872	825	890	2124	
576	0	870	826	890	2123	
577	0	869	826	889	2120	
578	0	870	827	891	2123	
579	0	868	826	890	2122	
580	0	870	825	891	2123	
581	0	870	826	889	2122	
582	0	869	826	891	2122	
583	0	869	825	891	2122	
584	0	870	826	892	2121	
585	0	869	825	890	2118	
586	0	869	825	891	2119	
587	0	870	826	891	2121	
588	0	870	825	891	2122	
589	0	870	826	891	2124	
590	0	873	826	890	2122	
591	0	870	826	890	2123	
592	0	870	826	891	2121	
593	0	869	825	891	2120	
594	0	869	826	890	2118	
595	0	871	826	891	2116	
596	0	871	826	891	2114	
597	0	870	826	891	2115	
598	0	870	826	891	2116	
599	0	870	825	890	2113	
600	0	869	826	892	2115	
601	0	869	826	892	2113	
602	0	869	827	890	2113	
603	0	868	826	890	2112	
604	0	870	827	891	2113	
605	0	868	825	890	2111	
606	0	868	827	890	2110	
607	0	870	826	890	2111	
608	0	870	827	891	2111	
609	0	869	826	890	2109	
610	0	869	826	891	2110	
611	0	870	826	890	2108	
612	0	869	826	890	2105	
613	0	870	827	891	2105	
614	0	869	826	891	2102	
615	0	869	826	891	2102	
616	0	869	826	891	2103	
617	0	870	826	891	2101	
618	0	870	825	891	2101	
619	0	871	826	892	2101	
620	0	872	825	890	2099	
621	0	870	825	891	2100	
622	0	870	826	891	2100	
623	0	870	825	891	2099	
624	0	870	826	891	2099	
625	0	870	825	890	2095	
626	0	870	826	891	2095	
627	0	869	826	892	2095	
628	0	869	824	892	2093	
629	0	870	826	891	2095	
630	0	869	825	891	2093	
631	0	869	826	891	2093	
632	0	870	826	891	2095	
633	0	868	825	891	2094	
634	0	870	826	891	2092	
635	0	870	825	891	2088	
636	0	869	825	891	2087	
637	0	870	826	892	2087	
638	0	869	825	891	2086	
639	0	869	826	891	2084	
640	0	869	825	891	2083	
641	0	869	825	891	2084	
642	0	870	826	891	2085	
643	0	869	825	892	2086	
644	0	870	825	891	2084	
645	0	869	825	891	2085	
646	0	870	825	891	2085	
647	0	869	826	891	2085	
648	0	869	825	891	2086	
649	0	869	825	890	2083	
650	0	870	826	890	2082	
651	0	870	826	890	2082	
652	0	870	826	890	2082	
653	0	869	825	891	2082	
654	0	869	825	891	2080	
655	0	870	825	891	2081	
656	0	870	825	891	2080	
657	0	869	827	891	2080	
658	0	868	825	891	2081	
659	0	869	826	891	2079	
660	0	869	826	891	2077	
661	0	869	826	891	2075	
662	0	870	826	891	2075	
663	0	869	825	891	2076	
664	0	870	826	891	2078	
665	0	870	825	890	2076	
666	0	870	825	890	2076	
667	0	869	825	891	2076	
668	0	869	825	891	2078	
669	0	870	826	892	2079	
670	0	869	825	891	2078	
671	0	868	826	891	2078	
672	0	869	826	892	2079	
673	0	869	825	891	2079	
674	0	870	826	891	2079	
675	0	870	825	890	2077	
676	0	869	826	891	2077	
677	0	870	826	892	2078	
678	0	869	825	891	2078	
679	0	869	826	892	2078	
680	0	869	825	891	2075	
681	0	869	826	891	2075	
682	0	870	826	892	2077	
683	0	868	825	890	2076	
684	0	868	825	891	2075	
685	0	867	826	892	2076	
686	0	870	826	890	2074	
687	0	870	826	891	2072	
688	0	870	825	890	2073	
689	0	871	826	891	2072	
690	0	871	825	891	2070	
691	0	870	825	891	2070	
692	0	869	825	890	2071	
693	0	869	824	890	2072	
694	0	869	826	890	2069	
695	0	869	826	891	2070	
696	0	870	826	890	2069	
697	0	870	826	890	2070	
698	0	869	825	889	2073	
699	0	869	826	891	2075	
700	0	870	826	890	2074	
701	0	869	826	890	2074	
702	0	869	826	890	2075	
703	0	869	825	889	2074	
704	0	870	826	891	2075	
705	0	872	825	890	2072	
706	0	869	825	891	2074	
707	0	870	826	892	2075	
708	0	869	825	891	2074	
709	0	869	825	891	2071	
710	0	870	826	891	2070	
711	0	870	826	891	2070	
712	0	869	826	891	2071	
713	0	869	825	890	2071	
714	0	870	826	891	2073	
715	0	870	825	891	2071	
716	0	870	826	891	2069	
717	0	871	826	891	2072	
718	0	870	825	890	2076	
719	0	870	825	891	2076	
720	0	869	826	891	2078	
721	0	869	826	890	2077	
722	0	869	825	892	2076	
723	0	870	826	891	2076	
724	0	869	825	891	2072	
725	0	870	825	892	2075	
726	0	870	825	892	2078	
727	0	870	825	890	2077	
728	0	871	826	891	2078	
729	0	870	825	890	2076	
730	0	870	825	891	2075	
731	0	870	826	891	2076	
732	0	871	826	892	2077	
733	0	870	825	891	2077	
734	0	871	826	892	2077	
735	0	871	825	891	2076	
736	0	869	826	890	2078	
737	0	869	826	891	2079	
738	0	870	826	891	2081	
739	0	869	825	890	2079	
740	0	869	826	891	2079	
741	0	870	826	890	2079	
742	0	871	826	891	2079	
743	0	870	825	890	2079	
744	0	870	826	892	2080	
745	0	870	825	891	2078	
746	0	869	825	891	2079	
747	0	869	826	891	2082	
748	0	869	825	890	2082	
749	0	869	825	890	2081	
750	0	869	825	891	2081	
751	0	869	826	891	2080	
752	0	870	826	891	2078	
753	0	870	825	890	2078	
754	0	871	826	891	2079	
755	0	870	826	890	2077	
756	0	870	826	890	2077	
757	0	871	826	890	2079	
758	0	870	825	890	2078	
759	0	870	827	891	2079	
760	0	869	826	890	2078	
761	0	869	826	890	2081	
762	0	870	826	892	2084	
763	0	870	825	890	2082	
764	0	870	825	891	2081	
765	0	869	825	891	2081	
766	0	869	825	891	2083	
767	0	870	826	892	2084	
768	0	869	825	890	2081	
769	0	870	826	891	2081	
770	0	869	825	890	2078	
771	0	869	826	890	2077	
772	0	870	826	890	2076	
773	0	869	826	890	2077	
774	0	870	826	892	2078	
775	0	869	826	890	2077	
776	0	869	825	891	2080	
777	0	870	827	891	2082	
778	0	869	826	890	2083	
779	0	870	827	891	2084	
780	0	870	825	891	2081	
781	0	870	825	890	2080	
782	0	870	826	891	2081	
783	0	869	825	890	2081	
784	0	870	826	891	2081	
785	0	870	826	891	2082	
786	0	871	826	890	2080	
787	0	870	826	892	2080	
788	0	870	826	891	2082	
789	0	869	826	890	2078	
790	0	869	826	891	2081	
791	0	870	826	891	2080	
792	0	869	826	892	2077	
793	0	870	826	892	2077	
794	0	869	825	890	2075	
795	0	870	826	890	2076	
796	0	869	826	891	2078	
797	0	870	827	891	2079	
798	0	870	825	890	2079	
799	0	870	827	891	2081	
800	0	870	826	890	2080	
801	0	870	827	890	2080	
802	0	871	827	891	2082	
803	0	870	826	890	2080	
804	0	871	826	892	2078	
805	0	870	826	892	2080	
806	0	870	825	891	2079	
807	0	870	826	890	2081	
808	0	870	826	890	2080	
809	0	870	826	891	2078	
810	0	870	826	890	2078	
811	0	870	825	890	2080	
812	0	870	826	890	2080	
813	0	870	825	891	2081	
814	0	870	825	891	2078	
815	0	870	825	891	2078	
816	0	870	825	891	2078	
817	0	870	826	891	2078	
818	0	870	825	891	2078	
819	0	870	825	891	2076	
820	0	869	826	890	2076	
821	0	870	825	890	2076	
822	0	869	826	889	2077	
823	0	869	825	890	2079	
824	0	870	825	891	2077	
825	0	869	826	890	2078	
826	0	869	825	891	2077	
827	0	870	826	890	2076	
828	0	869	825	890	2077	
829	0	870	825	891	2074	
830	0	870	826	891	2078	
831	0	872	827	891	2078	
832	0	870	826	890	2075	
833	0	869	826	890	2076	
834	0	870	827	891	2076	
835	0	870	826	890	2074	
836	0	870	826	891	2073	
837	0	871	826	891	2073	
838	0	870	826	890	2072	
839	0	870	827	891	2073	
840	0	870	826	891	2069	
841	0	869	826	891	2069	
842	0	870	826	891	2069	
843	0	870	826	890	2071	
844	0	871	827	891	2073	
845	0	870	826	890	2073	
846	0	869	826	891	2073	
847	0	870	826	891	2074	
848	0	869	825	890	2073	
849	0	869	826	891	2073	
850	0	870	826	891	2072	
851	0	869	826	891	2071	
852	0	871	826	891	2071	
853	0	870	825	890	2072	
854	0	870	826	891	2070	
855	0	870	825	891	2073	
856	0	870	825	890	2071	
857	0	870	826	890	2070	
858	0	870	826	890	2070	
859	0	870	825	890	2067	
860	0	870	825	891	2067	
861	0	870	825	890	2067	
862	0	871	826	891	2066	
863	0	870	825	890	2068	
864	0	869	825	890	2068	
865	0	870	825	891	2069	
866	0	869	825	890	2068	
867	0	870	826	891	2068	
868	0	869	825	891	2069	
869	0	869	825	890	2068	
870	0	869	825	891	2069	
871	0	869	825	890	2070	
872	0	870	826	890	2069	
873	0	870	826	890	2069	
874	0	870	826	891	2067	
875	0	870	826	890	2065	
876	0	870	825	890	2065	
877	0	870	826	891	2064	
878	0	869	825	891	2065	
879	0	869	825	891	2065	
880	0	870	825	892	2067	
881	0	870	826	893	2066	
882	0	870	826	890	2066	
883	0	869	826	890	2067	
884	0	870	826	891	2067	
885	0	870	827	892	2066	
886	0	868	826	891	2065	
887	0	870	826	891	2066	
888	0	870	826	890	2066	
889	0	871	827	891	2068	
890	0	871	827	891	2065	
891	0	869	826	891	2065	
892	0	870	827	891	2066	
893	0	870	825	891	2066	
894	0	870	826	892	2066	
895	0	871	826	891	2063	
896	0	869	825	891	2063	
897	0	869	826	892	2061	
898	0	870	826	892	2061	
899	0	869	826	891	2059	
900	0	869	826	891	2061	
901	0	870	826	891	2061	
902	0	870	826	891	2060	
903	0	870	826	891	2061	
904	0	870	825	891	2060	
905	0	870	825	892	2063	
906	0	870	825	892	2063	
907	0	870	825	892	2062	
908	0	870	825	891	2062	
909	0	871	826	892	2062	
910	0	869	826	891	2060	
911	0	870	825	890	2059	
912	0	870	826	891	2060	
913	0	870	826	890	2060	
914	0	870	828	890	2058	
915	0	869	826	892	2059	
916	0	870	827	891	2056	
917	0	869	825	892	2057	
918	0	869	825	891	2058	
919	0	870	828	891	2058	
920	0	869	826	890	2061	
921	0	870	826	891	2059	
922	0	870	826	891	2061	
923	0	870	826	890	2063	
924	0	872	828	891	2062	
925	0	871	827	890	2064	
926	0	871	825	891	2062	
927	0	871	826	890	2060	
928	0	870	825	890	2061	
929	0	870	825	890	2059	
930	0	870	825	891	2059	
931	0	870	825	891	2058	
932	0	870	826	891	2057	
933	0	869	825	891	2058	
934	0	869	825	890	2057	
935	0	868	826	890	2057	
936	0	869	825	890	2057	
937	0	870	826	891	2058	
938	0	870	826	891	2059	
939	0	870	825	890	2059	
940	0	871	826	890	2060	
941	0	871	826	891	2060	
942	0	870	826	890	2062	
943	0	869	826	890	2063	
944	0	869	826	890	2061	
945	0	869	826	890	2061	
946	0	869	825	890	2061	
947	0	870	825	891	2061	
948	0	870	825	891	2061	
949	0	870	825	891	2058	
950	0	870	826	891	2060	
951	0	871	826	892	2059	
952	0	870	826	891	2056	
953	0	869	825	891	2056	
954	0	870	825	891	2054	
955	0	870	825	890	2055	
956	0	870	826	892	2054	
957	0	870	825	892	2052	
958	0	871	825	892	2053	
959	0	871	825	890	2052	
960	0	870	826	891	2051	
961	0	871	826	891	2051	
962	0	869	825	891	2049	
963	0	869	825	892	2052	
964	0	870	826	891	2053	
965	0	870	827	891	2051	
966	0	869	826	890	2053	
967	0	870	827	891	2056	
968	0	869	826	891	2056	
969	0	870	826	891	2056	
970	0	870	826	890	2054	
971	0	868	826	891	2054	
972	0	870	826	891	2054	
973	0	869	826	890	2052	
974	0	870	826	890	2051	
975	0	870	825	890	2053	
976	0	870	826	891	2051	
977	0	869	826	891	2049	
978	0	869	825	891	2049	
979	0	870	827	890	2048	
980	0	869	826	890	2047	
981	0	869	825	891	2047	
982	0	869	826	892	2047	
983	0	868	826	891	2047	
984	0	868	826	890	2047	
985	0	870	826	890	2046	
986	0	870	825	891	2045	
987	0	870	826	891	2046	
988	0	869	826	890	2048	
989	0	869	826	890	2048	
990	0	870	826	890	2048	
991	0	871	826	891	2049	
992	0	871	826	892	2049	
993	0	871	825	891	2049	
994	0	871	826	891	2047	
995	0	870	826	891	2046	
996	0	870	825	892	2045	
997	0	870	826	892	2046	
998	0	870	827	891	2047	
999	0	870	826	891	2046	
1000	0	869	826	890	2046	
1001	0	869	825	891	2046	
1002	0	870	826	892	2046	
1003	0	870	826	890	2047	
1004	0	870	826	890	2048	
1005	0	869	826	890	2048	
1006	0	869	825	891	2048	
1007	0	871	826	891	2048	
1008	0	871	825	890	2049	
1009	0	871	826	891	2049	
1010	0	870	826	891	2047	
1011	0	869	826	890	2048	
1012	0	870	826	891	2050	
1013	0	869	825	891	2048	
1014	0	870	826	892	2049	
1015	0	871	826	891	2047	
1016	0	870	826	891	2047	
1017	0	870	826	892	2048	
1018	0	869	826	891	2047	
1019	0	869	826	891	2045	
1020	0	870	826	890	2047	
1021	0	870	827	891	2048	
1022	0	870	826	891	2047	
1023	0	870	826	891	2049	
1024	0	869	826	891	2048	
1025	0	869	826	890	2050	
1026	0	869	827	891	2047	
1027	0	869	826	892	2048	
1028	0	869	826	890	2048	
1029	0	869	825	890	2047	
1030	0	869	825	891	2046	
1031	0	870	825	892	2046	
1032	0	870	825	892	2046	
1033	0	870	825	890	2047	
1034	0	869	825	891	2046	
1035	0	869	825	891	2043	
1036	0	869	825	892	2043	
1037	0	869	826	892	2043	
1038	0	870	825	891	2043	
1039	0	870	826	891	2042	
1040	0	870	825	891	2043	
1041	0	870	826	890	2044	
1042	0	870	826	892	2045	
1043	0	870	826	890	2046	
1044	0	870	826	891	2045	
1045	0	869	826	891	2045	
1046	0	869	826	892	2046	
1047	0	869	826	892	2045	
1048	0	869	825	891	2046	
1049	0	870	826	891	2045	
1050	0	870	826	891	2045	
1051	0	870	826	892	2045	
1052	0	870	826	892	2044	
1053	0	870	826	891	2045	
1054	0	871	826	892	2045	
1055	0	871	826	891	2042	
1056	0	870	825	891	2043	
1057	0	871	826	892	2046	
1058	0	870	825	891	2046	
1059	0	870	825	891	2045	
1060	0	870	826	890	2047	
1061	0	871	827	892	2048	
1062	0	870	826	891	2047	
1063	0	871	826	892	2050	
1064	0	869	825	891	2047	
1065	0	870	825	890	2048	
1066	0	870	826	891	2048	
1067	0	869	826	891	2046	
1068	0	870	826	890	2047	
1069	0	871	827	891	2048	
1070	0	871	828	891	2045	
1071	0	870	826	890	2045	
1072	0	870	827	891	2047	
1073	0	869	825	890	2047	
1074	0	870	826	891	2048	
1075	0	871	827	890	2046	
1076	0	870	825	890	2046	
1077	0	870	825	891	2047	
1078	0	869	825	891	2047	
1079	0	869	825	890	2047	
1080	0	869	825	890	2047	
1081	0	869	827	889	2048	
1082	0	870	826	891	2048	
1083	0	869	826	890	2047	
1084	0	870	825	890	2047	
1085	0	870	826	890	2048	
1086	0	870	825	890	2048	
1087	0	870	826	891	2048	
1088	0	870	825	890	2049	
1089	0	871	826	891	2050	
1090	0	870	825	890	2048	
1091	0	870	826	891	2047	
1092	0	868	826	891	2046	
1093	0	870	825	891	2047	
1094	0	869	825	891	2045	
1095	0	870	825	890	2047	
1096	0	870	826	892	2046	
1097	0	870	825	891	2045	
1098	0	871	826	891	2047	
1099	0	870	825	891	2045	
1100	0	870	825	890	2046	
1101	0	870	826	891	2045	
1102	0	868	825	891	2043	
1103	0	870	826	892	2044	
1104	0	869	825	891	2042	
1105	0	869	825	891	2044	
1106	0	870	826	892	2045	
1107	0	869	825	892	2045	
1108	0	869	825	891	2045	
1109	0	870	826	892	2045	
1110	0	871	825	890	2043	
1111	0	870	826	890	2043	
1112	0	870	826	891	2043	
1113	0	869	826	891	2040	
1114	0	870	827	891	2038	
1115	0	869	827	890	2039	
1116	0	868	826	891	2041	
1117	0	869	826	891	2040	
1118	0	869	826	891	2041	
1119	0	869	826	891	2042	
1120	0	870	827	890	2044	
1121	0	869	826	891	2045	
1122	0	869	826	891	2043	
1123	0	869	825	891	2044	
1124	0	870	826	891	2043	
1125	0	870	826	891	2044	
1126	0	869	826	891	2044	
1127	0	869	826	891	2041	
1128	0	870	826	890	2042	
1129	0	870	826	890	2043	
1130	0	870	826	890	2043	
1131	0	869	826	891	2045	
1132	0	870	826	892	2044	
1133	0	869	825	890	2043	
1134	0	869	826	890	2043	
1135	0	870	827	890	2043	
1136	0	869	826	891	2044	
1137	0	870	826	891	2044	
1138	0	870	826	890	2045	
1139	0	870	826	890	2045	
1140	0	869	827	890	2045	
1141	0	868	826	891	2046	
1142	0	868	826	891	2045	
1143	0	870	826	891	2047	
1144	0	868	825	891	2047	
1145	0	868	825	890	2047	
1146	0	870	826	891	2046	
1147	0	870	826	891	2047	
1148	0	869	825	891	2047	
1149	0	870	826	891	2048	
1150	0	870	826	890	2047	
1151	0	868	825	891	2046	
1152	0	868	826	891	2043	
1153	0	869	825	891	2043	
1154	0	869	825	891	2037	
1155	0	869	824	891	2036	
1156	0	869	826	891	2029	
1157	0	868	825	891	2026	
1158	0	870	826	891	2023	
1159	0	870	825	890	2019	
1160	0	869	825	890	2016	
1161	0	869	826	890	2014	
1162	0	869	826	891	2013	
1163	0	869	825	890	2011	
1164	0	870	826	891	2012	
1165	0	871	825	891	2011	
1166	0	868	826	890	2011	
1167	0	868	826	891	2012	
1168	0	869	826	890	2013	
1169	0	870	827	891	2015	
1170	0	871	826	890	2014	
1171	0	870	826	891	2013	
1172	0	870	826	891	2012	
1173	0	870	825	890	2013	
1174	0	870	827	891	2012	
1175	0	871	826	891	2009	
1176	0	871	825	891	2008	
1177	0	870	826	891	2008	
1178	0	869	825	890	2005	
1179	0	871	826	891	2006	
1180	0	872	826	890	2004	
1181	0	871	826	891	2001	
1182	0	871	826	891	2000	
1183	0	869	825	890	1997	
1184	0	870	826	891	1996	
1185	0	870	828	891	1993	
1186	0	869	826	891	1991	
1187	0	869	825	891	1991	
1188	0	871	826	891	1993	
1189	0	870	825	891	1992	
1190	0	870	825	890	1996	
1191	0	871	826	891	1996	
1192	0	870	825	891	1994	
1193	0	871	826	892	1996	
1194	0	869	826	891	1994	
1195	0	869	825	891	1995	
1196	0	870	826	891	1991	
1197	0	869	825	891	1994	
1198	0	870	826	891	1994	
1199	0	869	826	890	1993	
1200	0	869	826	891	1997	
1201	0	871	825	891	1998	
1202	0	869	826	891	1999	
1203	0	871	825	890	2000	
1204	0	871	826	890	2002	
1205	0	869	826	890	2004	
1206	0	870	825	891	2006	
1207	0	870	826	891	2007	
1208	0	869	826	890	2008	
1209	0	869	825	890	2011	
1210	0	870	826	890	2013	
1211	0	869	826	890	2015	
1212	0	868	827	891	2016	
1213	0	869	826	889	2018	
1214	0	869	826	890	2017	
1215	0	869	826	890	2016	
1216	0	870	826	890	2017	
1217	0	870	826	891	2020	
1218	0	870	825	890	2023	
1219	0	870	826	890	2025	
1220	0	869	826	890	2030	
1221	0	869	826	890	2035	
1222	0	869	826	891	2039	
1223	0	869	825	889	2045	
1224	0	869	825	891	2049	
1225	0	868	825	891	2054	
1226	0	868	825	890	2056	
1227	0	868	826	891	2058	
1228	0	868	826	890	2059	
1229	0	869	826	891	2062	
1230	0	870	827	891	2062	
1231	0	869	825	891	2065	
1232	0	869	826	892	2068	
1233	0	870	826	892	2071	
1234	0	869	825	891	2072	
1235	0	870	826	891	2075	
1236	0	870	826	891	2076	
1237	0	869	826	891	2075	
1238	0	870	827	891	2074	
1239	0	869	826	891	2073	
1240	0	869	826	891	2075	
1241	0	869	826	891	2072	
1242	0	869	826	891	2073	
1243	0	870	826	890	2074	
1244	0	871	827	891	2075	
1245	0	871	826	891	2073	
1246	0	870	826	891	2074	
1247	0	870	826	891	2074	
1248	0	870	826	891	2076	
1249	0	869	825	890	2075	
1250	0	869	826	891	2078	
1251	0	870	826	891	2075	
1252	0	869	826	891	2077	
1253	0	869	825	891	2076	
1254	0	870	826	891	2079	
1255	0	870	825	891	2077	
1256	0	870	825	891	2077	
1257	0	871	826	891	2077	
1258	0	870	826	890	2073	
1259	0	870	826	891	2074	
1260	0	871	825	891	2071	
1261	0	871	825	891	2071	
1262	0	870	825	892	2071	
1263	0	870	825	890	2074	
1264	0	870	826	890	2075	
1265	0	870	826	891	2079	
1266	0	870	826	891	2079	
1267	0	870	826	891	2076	
1268	0	869	825	891	2076	
1269	0	870	826	892	2077	
1270	0	870	825	891	2075	
1271	0	870	826	891	2076	
1272	0	868	826	890	2073	
1273	0	868	825	890	2071	
1274	0	868	826	890	2068	
1275	0	868	825	891	2064	
1276	0	870	825	891	2058	
1277	0	869	826	891	2050	
1278	0	869	825	890	2044	
1279	0	870	826	890	2039	
1280	0	868	826	890	2034	
1281	0	870	825	890	2028	
1282	0	869	826	891	2020	
1283	0	869	825	890	2012	
1284	0	870	825	890	2001	
1285	0	869	826	890	1985	
1286	0	871	825	891	1965	
1287	0	870	825	891	1941	
1288	0	870	825	890	1915	
1289	0	870	826	890	1888	
1290	0	870	825	891	1860	
1291	0	870	825	891	1834	
1292	0	870	826	891	1815	
1293	0	870	825	890	1800	
1294	0	870	826	891	1793	
1295	0	870	826	891	1797	
1296	0	870	826	891	1808	
1297	0	868	826	891	1823	
1298	0	869	827	891	1839	
1299	0	868	826	890	1853	
1300	0	869	826	890	1868	
1301	0	870	826	891	1872	
1302	0	869	826	890	1871	
1303	0	869	826	889	1873	
1304	0	869	826	890	1875	
1305	0	870	826	891	1886	
1306	0	871	826	891	1903	
1307	0	870	826	891	1928	
1308	0	871	827	891	1964	
1309	0	870	826	890	2009	
1310	0	870	826	891	2064	
1311	0	870	825	891	2125	
1312	0	871	826	892	2191	
1313	0	869	826	891	2255	
1314	0	870	826	892	2325	
1315	0	872	825	891	2390	
1316	0	871	825	891	2448	
1317	0	870	826	891	2488	
1318	0	870	825	890	2510	
1319	0	870	826	891	2516	
1320	0	871	825	891	2504	
1321	0	870	826	892	2489	
1322	0	871	826	891	2469	
1323	0	870	825	889	2443	
1324	0	870	826	891	2417	
1325	0	870	826	890	2387	
1326	0	869	825	891	2356	
1327	0	869	826	891	2326	
1328	0	869	825	890	2299	
1329	0	868	826	891	2275	
1330	0	871	825	890	2249	
1331	0	869	826	892	2227	
1332	0	870	826	891	2206	
1333	0	870	825	889	2180	
1334	0	869	826	890	2159	
1335	0	871	826	891	2135	
1336	0	871	825	890	2114	
1337	0	870	826	891	2096	
1338	0	869	826	889	2077	
1339	0	868	826	891	2066	
1340	0	869	826	891	2054	
1341	0	871	825	891	2048	
1342	0	870	826	891	2045	
1343	0	869	826	890	2040	
1344	0	868	827	891	2038	
1345	0	870	826	890	2034	
1346	0	868	826	892	2032	
1347	0	870	826	892	2032	
1348	0	869	826	890	2030	
1349	0	869	826	891	2032	
1350	0	870	825	891	2029	
1351	0	871	825	890	2029	
1352	0	870	826	891	2029	
1353	0	870	826	891	2029	
1354	0	869	825	891	2025	
1355	0	869	826	891	2025	
1356	0	869	824	891	2025	
1357	0	870	826	891	2026	
1358	0	870	826	889	2026	
1359	0	870	826	890	2027	
1360	0	870	826	890	2029	
1361	0	870	825	890	2029	
1362	0	871	826	892	2030	
1363	0	870	826	890	2030	
1364	0	871	825	891	2030	
1365	0	871	825	891	2028	
1366	0	871	826	891	2026	
1367	0	871	826	892	2027	
1368	0	870	825	890	2023	
1369	0	870	826	891	2022	
1370	0	869	825	891	2024	
1371	0	870	826	892	2025	
1372	0	869	826	892	2024	
1373	0	870	826	891	2024	
1374	0	869	825	890	2022	
1375	0	869	826	891	2024	
1376	0	870	826	891	2024	
1377	0	869	825	891	2025	
1378	0	870	826	891	2025	
1379	0	868	825	891	2023	
1380	0	869	825	891	2024	
1381	0	870	824	891	2023	
1382	0	870	826	892	2023	
1383	0	870	825	891	2020	
1384	0	869	825	891	2018	
1385	0	870	825	891	2018	
1386	0	870	826	891	2017	
1387	0	870	826	892	2016	
1388	0	870	826	891	2016	
1389	0	869	826	891	2016	
1390	0	870	826	890	2015	
1391	0	870	826	891	2016	
1392	0	870	826	891	2016	
1393	0	869	825	890	2015	
1394	0	869	826	891	2015	
1395	0	869	826	890	2015	
1396	0	870	825	891	2017	
1397	0	869	826	891	2015	
1398	0	870	826	890	2016	
1399	0	869	826	890	2017	
1400	0	869	826	890	2016	
1401	0	870	826	891	2017	
1402	0	869	826	891	2017	
1403	0	868	825	890	2016	
1404	0	868	826	891	2016	
1405	0	869	826	890	2015	
1406	0	869	825	891	2016	
1407	0	869	825	891	2015	
1408	0	868	825	891	2014	
1409	0	868	826	890	2013	
1410	0	868	826	891	2015	
1411	0	868	826	891	2014	
1412	0	869	826	891	2011	
1413	0	869	826	891	2010	
1414	0	869	825	890	2008	
1415	0	869	825	890	2008	
1416	0	870	825	892	2007	
1417	0	870	826	892	2008	
1418	0	870	825	891	2007	
1419	0	868	826	891	2006	
1420	0	869	825	890	2006	
1421	0	869	826	890	2006	
1422	0	870	826	891	2008	
1423	0	869	825	890	2006	
1424	0	868	826	890	2007	
1425	0	869	825	891	2008	
1426	0	870	826	891	2011	
1427	0	870	825	890	2011	
1428	0	870	826	890	2011	
1429	0	869	826	890	2007	
1430	0	870	826	890	2008	
1431	0	870	826	891	2009	
1432	0	869	825	891	2008	
1433	0	870	826	892	2008	
1434	0	869	825	891	2006	
1435	0	869	825	891	2005	
1436	0	871	827	892	2006	
1437	0	870	826	891	2005	
1438	0	868	826	891	2006	
1439	0	868	826	892	2007	
1440	0	871	825	891	2004	
1441	0	870	824	891	2004	
1442	0	870	826	891	2004	
1443	0	870	825	891	2003	
1444	0	869	826	891	2003	
1445	0	870	826	891	2004	
1446	0	870	825	891	2005	
1447	0	870	825	891	2006	
1448	0	869	825	891	2005	
1449	0	868	825	892	2005	
1450	0	871	825	890	2002	
1451	0	869	825	891	2003	
1452	0	869	826	891	2003	
1453	0	869	825	890	2003	
1454	0	869	825	890	2002	
1455	0	870	825	891	2003	
1456	0	870	826	891	2006	
1457	0	870	826	891	2003	
1458	0	870	826	891	2002	
1459	0	869	825	890	2001	
1460	0	869	826	891	2002	
1461	0	870	826	891	2003	
1462	0	869	825	891	2003	
1463	0	870	826	891	2005	
1464	0	869	826	890	2003	
1465	0	870	825	891	2002	
1466	0	870	826	891	2001	
1467	0	871	826	891	2002	
1468	0	869	825	891	2002	
1469	0	869	826	891	2002	
1470	0	871	826	892	1998	
1471	0	870	826	891	1998	
1472	0	870	827	891	1999	
1473	0	870	826	891	1996	
1474	0	869	826	891	1997	
1475	0	871	825	891	1994	
1476	0	870	826	890	1994	
1477	0	869	826	891	1995	
1478	0	869	825	890	1993	
1479	0	869	826	892	1993	
1480	0	870	827	891	1993	
1481	0	869	825	892	1994	
1482	0	870	826	892	1996	
1483	0	869	825	891	1994	
1484	0	868	826	891	1995	
1485	0	869	826	890	1994	
1486	0	869	826	890	1993	
1487	0	870	825	891	1993	
1488	0	870	827	891	1994	
1489	0	869	826	890	1992	
1490	0	870	826	891	1992	
1491	0	871	826	891	1993	
1492	0	870	825	891	1992	
1493	0	871	826	891	1992	
1494	0	870	825	890	1988	
1495	0	870	825	891	1987	
1496	0	870	826	892	1989	
1497	0	870	826	891	1987	
1498	0	869	826	891	1985	
1499	0	868	827	891	1987	
1500	0	870	826	893	1985	
1501	0	869	825	890	1985	
1502	0	868	825	891	1984	
1503	0	868	825	890	1983	
1504	0	869	825	890	1982	
1505	0	868	825	892	1981	
1506	0	870	826	891	1981	
1507	0	870	825	891	1979	
1508	0	870	826	891	1979	
1509	0	870	825	890	1976	
1510	0	870	825	891	1977	
1511	0	871	826	891	1977	
1512	0	870	826	891	1977	
1513	0	871	826	891	1977	
1514	0	870	826	890	1975	
1515	0	870	826	891	1974	
1516	0	870	827	891	1975	
1517	0	870	825	891	1973	
1518	0	869	825	891	1971	
1519	0	870	825	891	1968	
1520	0	869	826	891	1968	
1521	0	870	826	891	1969	
1522	0	869	825	891	1969	
1523	0	870	826	891	1970	
1524	0	869	825	890	1967	
1525	0	869	826	891	1966	
1526	0	869	826	891	1966	
1527	0	868	825	891	1964	
1528	0	870	826	891	1965	
1529	0	868	826	890	1962	
1530	0	870	826	891	1961	
1531	0	870	827	890	1960	
1532	0	869	825	891	1959	
1533	0	868	826	890	1958	
1534	0	869	826	890	1955	
1535	0	869	826	890	1956	
1536	0	869	826	891	1958	
1537	0	868	825	891	1957	
1538	0	869	826	891	1956	
1539	0	869	825	890	1954	
1540	0	868	825	891	1953	
1541	0	868	825	891	1951	
1542	0	868	826	890	1951	
1543	0	868	826	890	1950	
1544	0	869	825	890	1950	
1545	0	869	825	890	1951	
1546	0	870	825	890	1952	
1547	0	868	825	891	1953	
1548	0	868	825	891	1951	
1549	0	869	825	891	1949	
1550	0	869	825	890	1946	
1551	0	869	825	890	1945	
1552	0	868	825	891	1944	
1553	0	868	826	890	1943	
1554	0	868	826	890	1941	
1555	0	869	825	890	1941	
1556	0	871	826	890	1940	
1557	0	868	825	891	1939	
1558	0	869	825	891	1937	
1559	0	868	826	891	1935	
1560	0	869	825	891	1934	
1561	0	870	825	891	1935	
1562	0	869	825	891	1935	
1563	0	870	825	891	1935	
1564	0	869	825	891	1936	
1565	0	869	825	891	1938	
1566	0	869	828	891	1940	
1567	0	871	826	891	1941	
1568	0	870	825	891	1939	
1569	0	870	826	891	1939	
1570	0	870	825	891	1939	
1571	0	870	826	891	1938	
1572	0	870	826	892	1939	
1573	0	869	825	890	1937	
1574	0	870	825	890	1935	
1575	0	870	826	891	1936	
1576	0	870	827	891	1936	
1577	0	870	826	891	1937	
1578	0	869	826	891	1935	
1579	0	869	826	891	1936	
1580	0	869	826	890	1937	
1581	0	870	826	890	1939	
1582	0	868	825	891	1941	
1583	0	870	826	891	1943	
1584	0	870	826	890	1942	
1585	0	870	825	890	1943	
1586	0	870	827	890	1946	
1587	0	870	827	891	1948	
1588	0	869	826	891	1946	
1589	0	869	827	891	1949	
1590	0	869	827	891	1946	
1591	0	868	826	891	1947	
1592	0	870	826	891	1950	
1593	0	869	825	890	1949	
1594	0	870	826	891	1952	
1595	0	870	825	891	1952	
1596	0	870	826	891	1954	
1597	0	871	826	892	1957	
1598	0	870	825	891	1957	
1599	0	869	825	891	1957	
1600	0	869	826	891	1960	
1601	0	870	826	891	1963	
1602	0	868	826	890	1964	
1603	0	870	827	891	1966	
1604	0	869	826	890	1968	
1605	0	870	826	890	1971	
1606	0	869	826	891	1975	
1607	0	868	825	891	1978	
1608	0	870	826	892	1981	
1609	0	868	826	890	1982	
1610	0	869	826	890	1986	
1611	0	870	827	890	1989	
1612	0	869	826	890	1994	
1613	0	868	827	890	1995	
1614	0	869	825	891	1997	
1615	0	869	826	890	1999	
1616	0	869	825	889	2003	
1617	0	868	825	891	2008	
1618	0	869	825	890	2010	
1619	0	869	826	890	2014	
1620	0	869	825	890	2018	
1621	0	870	824	890	2023	
1622	0	869	825	891	2029	
1623	0	869	825	890	2031	
1624	0	869	826	890	2034	
1625	0	869	826	890	2037	
1626	0	870	826	890	2040	
1627	0	869	825	891	2043	
1628	0	870	825	890	2043	
1629	0	869	826	890	2048	
1630	0	870	826	890	2053	
1631	0	870	825	890	2056	
1632	0	868	825	891	2060	
1633	0	869	825	891	2061	
1634	0	869	826	891	2063	
1635	0	869	826	890	2065	
1636	0	869	825	891	2068	
1637	0	869	825	891	2071	
1638	0	870	826	892	2075	
1639	0	868	825	891	2076	
1640	0	869	825	891	2078	
1641	0	869	827	891	2081	
1642	0	869	826	892	2085	
1643	0	868	826	891	2085	
1644	0	869	826	890	2087	
1645	0	871	825	890	2091	
1646	0	870	826	891	2094	
1647	0	869	826	891	2095	
1648	0	871	826	891	2099	
1649	0	869	825	890	2098	
1650	0	870	825	890	2100	
1651	0	870	826	891	2102	
1652	0	869	825	890	2101	
1653	0	869	826	891	2104	
1654	0	869	825	890	2102	
1655	0	870	825	891	2103	
1656	0	870	824	891	2104	
1657	0	869	825	891	2105	
1658	0	870	825	891	2105	
1659	0	869	826	890	2108	
1660	0	869	826	891	2111	
1661	0	869	825	891	2114	
1662	0	869	826	891	2115	
1663	0	869	826	890	2114	
1664	0	870	826	890	2115	
1665	0	870	826	892	2116	
1666	0	870	824	891	2117	
1667	0	868	825	891	2116	
1668	0	868	826	890	2115	
1669	0	869	826	890	2116	
1670	0	870	826	891	2116	
1671	0	870	826	890	2116	
1672	0	869	826	891	2116	
1673	0	869	826	890	2116	
1674	0	868	825	890	2117	
1675	0	869	825	891	2117	
1676	0	869	824	891	2118	
1677	0	868	825	891	2118	
1678	0	869	825	890	2117	
1679	0	869	825	890	2117	
1680	0	870	826	892	2115	
1681	0	870	826	891	2116	
1682	0	869	825	891	2115	
1683	0	869	825	890	2114	
1684	0	869	825	890	2114	
1685	0	869	826	891	2115	
1686	0	870	826	891	2116	
1687	0	869	825	890	2117	
1688	0	870	825	890	2115	
1689	0	871	826	891	2115	
1690	0	871	825	892	2116	
1691	0	870	825	890	2117	
1692	0	869	824	891	2117	
1693	0	869	825	890	2116	
1694	0	870	826	890	2116	
1695	0	870	825	890	2115	
1696	0	870	826	890	2116	
1697	0	869	825	891	2115	
1698	0	869	826	891	2113	
1699	0	869	826	891	2112	
1700	0	869	825	890	2111	
1701	0	870	826	890	2111	
1702	0	869	826	891	2111	
1703	0	869	826	890	2109	
1704	0	870	826	891	2110	
1705	0	869	826	890	2111	
1706	0	870	827	890	2112	
1707	0	869	825	891	2111	
1708	0	870	826	890	2110	
1709	0	870	826	890	2109	
1710	0	870	825	890	2108	
1711	0	870	827	890	2108	
1712	0	868	826	891	2108	
1713	0	870	826	891	2106	
1714	0	870	826	891	2105	
1715	0	870	825	891	2104	
1716	0	870	826	891	2105	
1717	0	869	826	891	2105	
1718	0	870	825	891	2103	
1719	0	870	826	891	2102	
1720	0	870	826	891	2102	
1721	0	870	826	891	2102	
1722	0	869	825	891	2101	
1723	0	870	825	891	2100	
1724	0	870	827	891	2104	
1725	0	871	826	891	2101	
1726	0	870	827	891	2102	
1727	0	870	826	892	2102	
1728	0	869	825	891	2100	
1729	0	870	826	892	2103	
1730	0	870	826	893	2101	
1731	0	870	826	891	2099	
1732	0	871	827	891	2099	
1733	0	869	826	890	2097	
1734	0	870	826	891	2099	
1735	0	871	826	891	2097	
1736	0	871	826	891	2096	
1737	0	871	826	891	2098	
1738	0	870	825	891	2094	
1739	0	870	826	891	2094	
1740	0	870	826	890	2094	
1741	0	870	826	891	2093	
1742	0	870	826	891	2095	
1743	0	869	826	890	2091	
1744	0	870	825	891	2092	
1745	0	870	828	890	2089	
1746	0	869	826	891	2089	
1747	0	870	826	891	2090	
1748	0	869	826	890	2089	
1749	0	869	826	891	2091	
1750	0	870	826	892	2088	
1751	0	870	827	891	2087	
1752	0	870	826	892	2088	
1753	0	869	826	890	2086	
1754	0	869	826	892	2087	
1755	0	869	826	891	2085	
1756	0	869	826	891	2086	
1757	0	869	826	890	2087	
1758	0	869	825	890	2086	
1759	0	869	825	890	2087	
1760	0	868	826	890	2086	
1761	0	869	825	890	2086	
1762	0	868	825	891	2087	
1763	0	869	825	891	2085	
1764	0	869	825	891	2086	
1765	0	869	826	891	2089	
1766	0	870	826	891	2090	
1767	0	869	825	891	2090	
1768	0	869	825	891	2090	
1769	0	870	825	891	2090	
1770	0	870	825	891	2089	
1771	0	870	825	891	2089	
1772	0	869	826	891	2090	
1773	0	869	825	890	2086	
1774	0	869	825	891	2086	
1775	0	868	826	891	2085	
1776	0	869	825	891	2086	
1777	0	869	826	891	2086	
1778	0	870	826	891	2085	
1779	0	869	826	891	2083	
1780	0	869	826	891	2083	
1781	0	870	826	890	2084	
1782	0	869	826	891	2084	
1783	0	870	825	891	2082	
1784	0	870	826	891	2084	
1785	0	870	827	891	2084	
1786	0	871	827	891	2085	
1787	0	871	826	892	2087	
1788	0	871	826	891	2085	
1789	0	870	826	891	2085	
1790	0	870	826	890	2086	
1791	0	871	826	891	2085	
1792	0	870	825	891	2086	
1793	0	871	826	892	2088	
1794	0	871	826	891	2086	
1795	0	869	827	891	2085	
1796	0	870	826	891	2085	
1797	0	870	826	891	2084	
1798	0	870	825	891	2082	
1799	0	870	825	891	2084	
1800	0	871	827	890	2082	
1801	0	870	826	890	2082	
1802	0	870	826	891	2085	
1803	0	870	826	890	2083	
1804	0	870	825	891	2085	
1805	0	870	828	890	2081	
1806	0	870	826	890	2080	
1807	0	871	827	891	2082	
1808	0	870	826	890	2080	
1809	0	870	826	890	2080	
1810	0	869	827	890	2080	
1811	0	870	827	890	2082	
1812	0	870	826	891	2084	
1813	0	870	826	891	2083	
1814	0	869	825	891	2086	
1815	0	870	828	891	2083	
1816	0	870	826	890	2084	
1817	0	870	826	892	2086	
1818	0	870	825	891	2083	
1819	0	869	826	891	2084	
1820	0	869	825	891	2085	
1821	0	870	826	892	2086	
1822	0	870	826	891	2085	
1823	0	871	826	891	2087	
1824	0	869	825	891	2086	
1825	0	868	826	890	2085	
1826	0	869	826	890	2083	
1827	0	869	826	891	2086	
1828	0	869	825	890	2085	
1829	0	869	825	891	2088	
1830	0	869	826	891	2087	
1831	0	870	826	890	2086	
1832	0	870	827	891	2087	
1833	0	869	826	890	2084	
1834	0	868	824	892	2085	
1835	0	870	826	893	2083	
1836	0	869	826	890	2082	
1837	0	870	826	891	2082	
1838	0	869	826	890	2080	
1839	0	868	825	891	2082	
1840	0	870	826	892	2082	
1841	0	869	826	890	2084	
1842	0	871	825	891	2085	
1843	0	869	825	890	2085	
1844	0	869	825	890	2086	
1845	0	869	826	890	2085	
1846	0	869	826	891	2086	
1847	0	868	826	891	2087	
1848	0	868	825	891	2087	
1849	0	869	825	891	2088	
1850	0	868	826	890	2088	
1851	0	869	827	890	2088	
1852	0	869	826	891	2086	
1853	0	869	825	891	2084	
1854	0	869	825	891	2084	
1855	0	869	826	891	2085	
1856	0	870	827	891	2084	
1857	0	870	825	891	2086	
1858	0	869	826	890	2085	
1859	0	868	826	891	2084	
1860	0	869	826	890	2083	
1861	0	870	826	890	2083	
1862	0	869	826	891	2084	
1863	0	870	825	891	2083	
1864	0	870	825	891	2085	
1865	0	869	826	891	2085	
1866	0	871	826	891	2083	
1867	0	870	825	892	2084	
1868	0	870	825	891	2083	
1869	0	869	824	891	2084	
1870	0	870	825	890	2084	
1871	0	870	826	891	2083	
1872	0	869	825	891	2084	
1873	0	869	825	891	2082	
1874	0	869	825	891	2081	
1875	0	868	826	891	2081	
1876	0	869	827	890	2082	
1877	0	868	826	891	2083	
1878	0	870	826	890	2082	
1879	0	869	826	891	2083	
1880	0	868	827	891	2084	
1881	0	869	827	891	2085	
1882	0	869	825	891	2087	
1883	0	869	826	890	2086	
1884	0	869	826	890	2084	
1885	0	868	827	890	2083	
1886	0	869	828	890	2084	
1887	0	869	826	891	2085	
1888	0	870	825	890	2083	
1889	0	870	826	891	2082	
1890	0	868	826	891	2082	
1891	0	870	827	890	2081	
1892	0	870	825	891	2083	
1893	0	870	825	891	2082	
1894	0	871	825	892	2083	
1895	0	871	826	890	2083	
1896	0	870	827	891	2082	
1897	0	869	826	891	2081	
1898	0	870	825	891	2079	
1899	0	870	825	890	2079	
1900	0	868	826	891	2080	
1901	0	869	827	890	2080	
1902	0	869	825	891	2083	
1903	0	869	825	890	2082	
1904	0	869	826	890	2084	
1905	0	869	826	890	2088	
1906	0	870	827	891	2090	
1907	0	869	826	891	2092	
1908	0	870	825	891	2092	
1909	0	869	826	891	2092	
1910	0	868	826	891	2092	
1911	0	870	826	890	2091	
1912	0	870	826	891	2091	
1913	0	871	825	890	2089	
1914	0	870	825	890	2089	
1915	0	868	826	890	2089	
1916	0	870	827	890	2089	
1917	0	869	825	891	2091	
1918	0	869	825	890	2090	
1919	0	870	825	891	2091	
1920	0	870	826	890	2090	
1921	0	870	826	890	2090	
1922	0	869	826	890	2091	
1923	0	869	826	892	2091	
1924	0	869	825	891	2089	
1925	0	869	825	891	2091	
1926	0	870	826	892	2091	
1927	0	870	826	891	2088	
1928	0	871	827	891	2090	
1929	0	870	825	890	2088	
1930	0	870	825	891	2088	
1931	0	870	825	891	2089	
1932	0	870	826	891	2087	
1933	0	870	826	892	2088	
1934	0	873	825	891	2086	
1935	0	871	826	891	2087	
1936	0	871	825	891	2088	
1937	0	871	826	891	2089	
1938	0	871	827	892	2089	
1939	0	870	826	890	2088	
1940	0	870	825	891	2088	
1941	0	870	826	892	2089	
1942	0	870	825	892	2087	
1943	0	869	825	891	2084	
1944	0	870	825	892	2087	
1945	0	870	826	892	2088	
1946	0	870	825	890	2087	
1947	0	870	826	892	2089	
1948	0	869	825	891	2088	
1949	0	869	825	891	2088	
1950	0	870	826	891	2088	
1951	0	870	826	891	2088	
1952	0	870	825	891	2085	
1953	0	870	827	891	2086	
1954	0	871	825	890	2084	
1955	0	869	826	890	2084	
1956	0	870	826	891	2084	
1957	0	868	826	891	2082	
1958	0	868	825	890	2081	
1959	0	868	825	891	2082	
1960	0	869	826	890	2080	
1961	0	869	826	890	2079	
1962	0	870	826	891	2081	
1963	0	868	825	891	2080	
1964	0	868	824	892	2082	
1965	0	870	826	892	2081	
1966	0	870	826	890	2079	
1967	0	869	825	890	2080	
1968	0	870	826	891	2081	
1969	0	870	824	890	2078	
1970	0	869	825	890	2079	
1971	0	870	826	891	2079	
1972	0	869	825	890	2078	
1973	0	870	826	891	2079	
1974	0	870	825	890	2076	
1975	0	870	826	890	2077	
1976	0	869	826	891	2079	
1977	0	869	825	891	2079	
1978	0	868	826	890	2077	
1979	0	869	826	891	2079	
1980	0	870	827	891	2079	
1981	0	870	826	889	2076	
1982	0	869	826	891	2077	
1983	0	869	825	890	2075	
1984	0	869	825	891	2077	
1985	0	870	826	891	2076	
1986	0	870	826	890	2075	
1987	0	870	826	892	2075	
1988	0	869	825	891	2075	
1989	0	868	825	891	2076	
1990	0	869	825	891	2075	
1991	0	869	826	891	2075	
1992	0	871	826	892	2076	
1993	0	869	825	891	2075	
1994	0	869	825	892	2076	
1995	0	869	825	890	2075	
1996	0	869	825	892	2076	
1997	0	869	826	892	2078	
1998	0	869	825	891	2075	
1999	0	869	825	892	2078	
2000	0	869	825	892	2077	
2001	0	871	825	890	2073	
2002	0	869	825	891	2073	
2003	0	871	826	892	2073	
2004	0	870	825	891	2071	
2005	0	870	825	891	2073	
2006	0	870	825	891	2075	
2007	0	870	824	892	2074	
2008	0	870	826	892	2075	
2009	0	868	825	891	2073	
2010	0	869	825	891	2071	
2011	0	870	826	892	2072	
2012	0	870	824	891	2071	
2013	0	869	825	891	2069	
2014	0	870	825	891	2068	
2015	0	869	825	891	2068	
2016	0	870	827	890	2067	
2017	0	869	825	891	2066	
2018	0	870	825	891	2066	
2019	0	870	826	891	2066	
2020	0	870	826	891	2067	
2021	0	869	827	892	2070	
2022	0	869	826	891	2071	
2023	0	869	826	890	2071	
2024	0	870	826	891	2070	
2025	0	870	826	891	2069	
2026	0	870	826	890	2070	
2027	0	870	825	892	2069	
2028	0	870	826	891	2068	
2029	0	869	825	892	2067	
2030	0	870	826	891	2066	
2031	0	869	827	891	2068	
2032	0	870	825	891	2068	
2033	0	870	826	892	2068	
2034	0	869	826	891	2065	
2035	0	870	826	891	2064	
2036	0	870	827	891	2065	
2037	0	869	826	890	2066	
2038	0	869	826	890	2064	
2039	0	870	826	892	2064	
2040	0	869	825	891	2063	
2041	0	870	826	890	2066	
2042	0	869	825	891	2066	
2043	0	868	826	891	2066	
2044	0	870	826	891	2066	
2045	0	870	826	891	2067	
2046	0	869	826	890	2067	
2047	0	869	824	890	2068	
2048	0	869	825	890	2066	
2049	0	869	825	890	2065	
2050	0	869	826	890	2064	
2051	0	870	826	891	2063	
2052	0	869	825	892	2063	
2053	0	870	825	891	2062	
2054	0	870	826	891	2061	
2055	0	870	826	891	2061	
2056	0	870	827	890	2061	
2057	0	869	825	890	2061	
2058	0	870	827	891	2062	
2059	0	869	826	890	2060	
2060	0	869	825	891	2060	
2061	0	869	826	892	2060	
2062	0	870	826	892	2062	
2063	0	870	825	891	2060	
2064	0	869	825	891	2061	
2065	0	869	825	891	2063	
2066	0	870	826	891	2065	
2067	0	870	825	891	2066	
2068	0	869	826	891	2065	
2069	0	870	826	891	2068	
2070	0	870	827	892	2063	
2071	0	870	826	891	2063	
2072	0	870	826	891	2064	
2073	0	869	826	890	2062	
2074	0	869	826	891	2064	
2075	0	869	827	893	2062	
2076	0	868	826	891	2062	
2077	0	869	826	892	2063	
2078	0	868	826	891	2062	
2079	0	869	826	892	2063	
2080	0	870	826	890	2062	
2081	0	870	826	890	2062	
2082	0	870	826	891	2063	
2083	0	870	825	890	2060	
2084	0	870	825	891	2061	
2085	0	872	826	890	2059	
2086	0	870	825	891	2058	
2087	0	869	825	891	2058	
2088	0	869	826	891	2057	
2089	0	870	826	891	2060	
2090	0	870	826	890	2057	
2091	0	871	826	891	2057	
2092	0	870	825	891	2058	
2093	0	870	825	891	2055	
2094	0	870	826	891	2055	
2095	0	870	827	890	2051	
2096	0	870	826	891	2047	
2097	0	870	827	891	2045	
2098	0	870	826	890	2038	
2099	0	869	826	891	2037	
2100	0	870	826	891	2034	
2101	0	869	826	890	2032	
2102	0	870	826	891	2032	
2103	0	870	826	891	2031	
2104	0	869	826	891	2032	
2105	0	870	826	891	2031	
2106	0	870	826	891	2032	
2107	0	870	826	892	2033	
2108	0	869	825	891	2034	
2109	0	870	825	892	2035	
2110	0	871	826	893	2033	
2111	0	871	825	892	2033	
2112	0	870	826	892	2034	
2113	0	869	825	891	2030	
2114	0	869	826	891	2031	
2115	0	870	826	891	2029	
2116	0	870	826	891	2027	
2117	0	870	826	891	2025	
2118	0	869	826	890	2022	
2119	0	869	826	891	2023	
2120	0	870	826	890	2023	
2121	0	870	826	891	2020	
2122	0	870	825	890	2019	
2123	0	870	825	891	2016	
2124	0	869	825	892	2016	
2125	0	870	827	890	2013	
2126	0	869	826	891	2010	
2127	0	869	826	891	2009	
2128	0	869	826	890	2005	
2129	0	869	826	892	2005	
2130	0	869	826	891	2002	
2131	0	870	826	891	2004	
2132	0	870	825	891	2006	
2133	0	870	825	891	2007	
2134	0	870	826	890	2007	
2135	0	870	826	891	2007	
2136	0	871	825	891	2007	
2137	0	870	825	890	2009	
2138	0	869	825	890	2008	
2139	0	869	826	890	2009	
2140	0	870	826	891	2010	
2141	0	870	826	891	2012	
2142	0	870	824	890	2014	
2143	0	870	826	890	2015	
2144	0	870	826	890	2018	
2145	0	870	826	891	2018	
2146	0	871	826	891	2020	
2147	0	870	824	891	2023	
2148	0	869	825	891	2023	
2149	0	869	825	891	2024	
2150	0	868	825	890	2024	
2151	0	868	825	891	2025	
2152	0	868	824	890	2026	
2153	0	868	825	890	2026	
2154	0	868	825	890	2026	
2155	0	869	825	891	2028	
2156	0	870	826	891	2032	
2157	0	869	825	890	2037	
2158	0	870	826	892	2039	
2159	0	871	825	891	2039	
2160	0	869	825	891	2041	
2161	0	869	826	892	2046	
2162	0	869	826	892	2051	
2163	0	868	825	891	2053	
2164	0	868	826	891	2060	
2165	0	870	826	891	2063	
2166	0	869	826	891	2065	
2167	0	870	826	891	2067	
2168	0	869	826	890	2067	
2169	0	869	826	891	2069	
2170	0	870	826	891	2072	
2171	0	870	825	892	2071	
2172	0	869	825	890	2073	
2173	0	869	825	890	2073	
2174	0	869	825	891	2075	
2175	0	868	825	890	2073	
2176	0	869	826	891	2076	
2177	0	870	826	891	2077	
2178	0	870	826	891	2075	
2179	0	870	826	891	2079	
2180	0	871	826	893	2077	
2181	0	871	826	891	2078	
2182	0	870	826	891	2078	
2183	0	870	825	890	2076	
2184	0	870	825	891	2077	
2185	0	871	826	893	2075	
2186	0	871	826	892	2075	
2187	0	871	826	892	2075	
2188	0	869	826	890	2073	
2189	0	869	826	890	2072	
2190	0	869	826	891	2071	
2191	0	869	826	892	2071	
2192	0	870	826	891	2071	
2193	0	869	826	890	2069	
2194	0	869	826	891	2070	
2195	0	870	826	890	2069	
2196	0	869	826	889	2065	
2197	0	869	825	890	2065	
2198	0	870	826	891	2067	
2199	0	870	827	891	2066	
2200	0	869	826	891	2066	
2201	0	871	826	892	2068	
2202	0	870	825	891	2068	
2203	0	871	826	892	2067	
2204	0	870	825	892	2070	
2205	0	870	827	891	2069	
2206	0	870	826	892	2068	
2207	0	870	827	892	2071	
2208	0	869	825	891	2069	
2209	0	869	825	890	2067	
2210	0	869	825	890	2065	
2211	0	870	826	892	2064	
2212	0	870	826	892	2063	
2213	0	869	825	891	2060	
2214	0	870	825	891	2062	
2215	0	871	826	891	2058	
2216	0	869	826	892	2057	
2217	0	870	826	890	2055	
2218	0	869	826	890	2049	
2219	0	869	826	891	2047	
2220	0	869	826	890	2043	
2221	0	870	826	891	2041	
2222	0	869	824	890	2036	
2223	0	869	825	890	2031	
2224	0	870	826	891	2028	
2225	0	871	825	891	2017	
2226	0	870	825	892	2005	
2227	0	869	825	890	1993	
2228	0	869	825	890	1976	
2229	0	869	825	891	1957	
2230	0	869	825	890	1933	
2231	0	869	826	890	1909	
2232	0	869	825	890	1885	
2233	0	870	825	890	1857	
2234	0	870	826	891	1834	
2235	0	870	825	890	1816	
2236	0	869	826	890	1801	
2237	0	869	825	890	1792	
2238	0	869	825	891	1789	
2239	0	869	825	890	1794	
2240	0	868	824	891	1805	
2241	0	869	825	891	1817	
2242	0	869	825	891	1829	
2243	0	870	824	891	1836	
2244	0	869	824	891	1843	
2245	0	870	824	891	1849	
2246	0	870	826	890	1856	
2247	0	870	826	890	1869	
2248	0	869	826	890	1886	
2249	0	869	826	890	1909	
2250	0	869	826	890	1941	
2251	0	870	826	891	1982	
2252	0	869	825	890	2032	
2253	0	870	826	891	2088	
2254	0	871	825	891	2146	
2255	0	869	826	890	2212	
2256	0	869	826	890	2283	
2257	0	869	826	890	2349	
2258	0	869	826	891	2398	
2259	0	869	825	891	2435	
2260	0	870	825	890	2456	
2261	0	871	826	891	2464	
2262	0	869	825	892	2462	
2263	0	870	825	891	2450	
2264	0	869	825	891	2434	
2265	0	869	825	890	2415	
2266	0	871	826	891	2393	
2267	0	870	825	891	2372	
2268	0	870	825	891	2348	
2269	0	870	825	890	2324	
2270	0	869	825	890	2300	
2271	0	870	825	891	2275	
2272	0	869	825	890	2255	
2273	0	869	825	890	2232	
2274	0	869	826	891	2212	
2275	0	869	825	891	2195	
2276	0	869	826	892	2178	
2277	0	869	825	891	2163	
2278	0	868	826	891	2144	
2279	0	868	826	890	2127	
2280	0	869	825	890	2108	
2281	0	870	826	891	2090	
2282	0	870	825	890	2075	
2283	0	869	825	891	2059	
2284	0	869	825	891	2048	
2285	0	870	825	890	2040	
2286	0	870	825	891	2033	
2287	0	870	825	891	2028	
2288	0	869	826	891	2023	
2289	0	869	826	890	2020	
2290	0	869	825	891	2018	
2291	0	870	826	892	2018	
2292	0	869	825	890	2019	
2293	0	869	825	891	2017	
2294	0	870	826	891	2017	
2295	0	869	825	891	2016	
2296	0	870	825	891	2016	
2297	0	870	825	890	2017	
2298	0	870	825	890	2015	
2299	0	870	825	891	2013	
2300	0	869	825	890	2012	
2301	0	869	826	891	2011	
2302	0	869	825	890	2012	
2303	0	869	825	890	2010	
2304	0	869	826	891	2010	
2305	0	869	826	891	2011	
2306	0	871	827	892	2013	
2307	0	870	826	890	2012	
2308	0	870	826	890	2011	
2309	0	870	826	890	2010	
2310	0	869	825	890	2009	
2311	0	869	826	891	2008	
2312	0	870	825	891	2009	
2313	0	869	825	891	2006	
2314	0	869	825	891	2006	
2315	0	868	825	892	2004	
2316	0	869	825	892	2004	
2317	0	869	825	891	2005	
2318	0	868	825	891	2003	
2319	0	868	826	891	2004	
2320	0	869	825	890	2004	
2321	0	869	826	891	2004	
2322	0	869	826	891	2005	
2323	0	869	826	890	2003	
2324	0	870	825	890	2005	
2325	0	869	825	891	2005	
2326	0	870	826	890	2004	
2327	0	870	826	890	2004	
2328	0	870	826	891	2004	
2329	0	870	826	890	2003	
2330	0	870	826	891	2005	
2331	0	869	826	891	2005	
2332	0	869	826	890	2003	
2333	0	870	826	891	2003	
2334	0	869	827	890	2000	
2335	0	869	826	890	1999	
2336	0	870	826	891	2000	
2337	0	870	826	891	1998	
2338	0	871	825	890	1996	
2339	0	871	825	890	1998	
2340	0	868	826	891	1999	
2341	0	870	827	892	2000	
2342	0	869	826	891	2000	
2343	0	870	825	891	1999	
2344	0	870	826	890	2002	
2345	0	870	826	891	2002	
2346	0	870	825	891	2000	
2347	0	870	826	892	2003	
2348	0	870	826	891	2002	
2349	0	870	825	890	2003	
2350	0	870	826	891	2001	
2351	0	869	826	890	2000	
2352	0	869	826	891	2000	
2353	0	870	825	891	1999	
2354	0	870	826	891	1999	
2355	0	870	826	891	1996	
2356	0	869	826	891	1995	
2357	0	870	825	891	1995	
2358	0	870	825	890	1993	
2359	0	869	825	890	1994	
2360	0	870	826	891	1992	
2361	0	869	825	891	1992	
2362	0	869	826	891	1994	
2363	0	868	825	890	1992	
2364	0	869	826	890	1995	
2365	0	870	826	891	1995	
2366	0	870	825	892	1995	
2367	0	869	825	891	1995	
2368	0	870	825	890	1993	
2369	0	869	826	890	1994	
2370	0	869	826	892	1995	
2371	0	868	825	891	1994	
2372	0	868	825	891	1995	
2373	0	870	826	891	1993	
2374	0	869	825	890	1994	
2375	0	870	826	891	1993	
2376	0	869	826	891	1991	
2377	0	869	826	891	1994	
2378	0	869	825	890	1992	
2379	0	869	826	890	1991	
2380	0	871	826	891	1990	
2381	0	870	826	891	1990	
2382	0	870	826	892	1990	
2383	0	869	825	891	1989	
2384	0	869	825	890	1990	
2385	0	868	825	891	1990	
2386	0	870	826	891	1992	
2387	0	869	826	891	1993	
2388	0	870	827	891	1994	
2389	0	872	826	890	1993	
2390	0	869	826	890	1993	
2391	0	870	826	890	1990	
2392	0	869	826	890	1990	
2393	0	869	826	890	1987	
2394	0	869	826	889	1988	
2395	0	869	826	891	1987	
2396	0	869	826	891	1984	
2397	0	871	826	891	1984	
2398	0	870	825	891	1982	
2399	0	870	825	891	1986	
2400	0	870	826	891	1986	
2401	0	870	826	891	1985	
2402	0	870	826	891	1989	
2403	0	870	825	890	1988	
2404	0	870	825	890	1991	
2405	0	871	826	891	1988	
2406	0	871	826	892	1989	
2407	0	870	825	890	1988	
2408	0	870	826	891	1989	
2409	0	871	827	891	1987	
2410	0	870	826	891	1987	
2411	0	870	826	892	1987	
2412	0	870	825	891	1987	
2413	0	870	826	892	1987	
2414	0	871	824	891	1986	
2415	0	870	825	891	1986	
2416	0	869	826	892	1988	
2417	0	868	825	891	1986	
2418	0	869	826	891	1986	
2419	0	869	825	891	1984	
2420	0	869	826	891	1985	
2421	0	869	826	892	1985	
2422	0	868	825	891	1983	
2423	0	870	826	892	1984	
2424	0	869	827	891	1982	
2425	0	870	825	891	1983	
2426	0	870	826	891	1983	
2427	0	870	826	891	1981	
2428	0	870	826	892	1981	
2429	0	868	826	890	1978	
2430	0	868	826	890	1978	
2431	0	869	826	891	1975	
2432	0	870	826	891	1976	
2433	0	870	825	890	1974	
2434	0	869	825	890	1976	
2435	0	870	826	891	1976	
2436	0	869	826	891	1974	
2437	0	869	827	891	1977	
2438	0	869	825	890	1974	
2439	0	870	825	890	1975	
2440	0	871	826	890	1974	
2441	0	871	826	891	1976	
2442	0	870	825	891	1974	
2443	0	871	826	892	1975	
2444	0	873	825	891	1972	
2445	0	869	825	891	1971	
2446	0	870	826	891	1971	
2447	0	870	826	891	1972	
2448	0	869	826	890	1969	
2449	0	869	826	890	1969	
2450	0	870	826	891	1968	
2451	0	869	826	891	1964	
2452	0	869	827	891	1966	
2453	0	869	826	890	1963	
2454	0	869	826	890	1964	
2455	0	869	826	891	1961	
2456	0	868	826	891	1961	
2457	0	868	825	890	1960	
2458	0	869	826	890	1959	
2459	0	869	825	890	1961	
2460	0	870	826	891	1961	
2461	0	868	826	891	1961	
2462	0	869	826	891	1964	
2463	0	869	825	891	1961	
2464	0	869	825	890	1963	
2465	0	870	826	892	1958	
2466	0	869	826	892	1958	
2467	0	870	825	891	1955	
2468	0	870	825	891	1953	
2469	0	870	825	890	1954	
2470	0	870	826	891	1951	
2471	0	870	825	892	1949	
2472	0	870	825	891	1949	
2473	0	870	826	890	1947	
2474	0	870	827	890	1946	
2475	0	870	826	890	1945	
2476	0	871	826	891	1945	
2477	0	870	825	891	1944	
2478	0	870	825	891	1942	
2479	0	870	826	890	1939	
2480	0	869	826	891	1938	
2481	0	870	826	891	1939	
2482	0	869	826	892	1937	
2483	0	870	826	892	1938	
2484	0	870	825	890	1936	
2485	0	869	825	891	1935	
2486	0	870	826	891	1935	
2487	0	869	825	891	1934	
2488	0	869	826	890	1933	
2489	0	869	826	889	1934	
2490	0	870	827	891	1932	
2491	0	870	826	891	1931	
2492	0	870	827	892	1932	
2493	0	870	825	891	1930	
2494	0	870	826	890	1931	
2495	0	870	827	891	1931	
2496	0	868	826	891	1928	
2497	0	869	826	891	1928	
2498	0	868	825	890	1925	
2499	0	869	825	890	1926	
2500	0	870	826	891	1926	
2501	0	869	825	891	1924	
2502	0	869	825	891	1925	
2503	0	869	826	892	1927	
2504	0	869	827	891	1925	
2505	0	870	826	890	1926	
2506	0	870	826	891	1927	
2507	0	868	825	891	1926	
2508	0	869	826	891	1928	
2509	0	870	825	889	1925	
2510	0	868	825	891	1925	
2511	0	868	826	891	1925	
2512	0	869	825	891	1924	
2513	0	870	826	890	1921	
2514	0	868	826	890	1919	
2515	0	869	826	891	1919	
2516	0	869	826	891	1919	
2517	0	869	826	891	1921	
2518	0	869	826	891	1921	
2519	0	869	825	891	1922	
2520	0	869	825	892	1923	
2521	0	869	826	892	1924	
2522	0	869	825	891	1926	
2523	0	869	825	890	1926	
2524	0	869	826	890	1926	
2525	0	869	826	891	1926	
2526	0	869	826	891	1926	
2527	0	869	826	890	1926	
2528	0	869	826	890	1927	
2529	0	869	825	891	1927	
2530	0	869	826	891	1928	
2531	0	870	826	891	1929	
2532	0	869	825	890	1931	
2533	0	869	825	891	1932	
2534	0	869	825	891	1932	
2535	0	869	825	891	1933	
2536	0	869	826	891	1935	
2537	0	870	826	891	1938	
2538	0	871	826	892	1941	
2539	0	871	827	891	1943	
2540	0	871	826	891	1945	
2541	0	869	826	891	1946	
2542	0	869	825	890	1949	
2543	0	870	826	890	1952	
2544	0	869	826	889	1958	
2545	0	870	826	891	1961	
2546	0	870	826	891	1964	
2547	0	869	826	890	1967	
2548	0	869	826	891	1972	
2549	0	870	825	891	1974	
2550	0	870	825	891	1978	
2551	0	869	826	892	1981	
2552	0	870	825	890	1984	
2553	0	870	826	891	1990	
2554	0	870	825	891	1991	
2555	0	870	825	890	1996	
2556	0	870	826	891	2001	
2557	0	868	826	890	2002	
2558	0	869	826	891	2007	
2559	0	869	825	890	2009	
2560	0	869	826	891	2014	
2561	0	870	826	891	2019	
2562	0	869	825	890	2022	
2563	0	870	826	891	2027	
2564	0	868	826	890	2028	
2565	0	870	825	890	2033	
2566	0	869	826	891	2036	
2567	0	869	825	890	2041	
2568	0	870	826	890	2044	
2569	0	870	826	891	2048	
2570	0	869	825	891	2052	
2571	0	869	826	892	2055	
2572	0	869	826	890	2057	
2573	0	870	825	890	2060	
2574	0	869	825	891	2063	
2575	0	870	825	891	2066	
2576	0	869	825	891	2068	
2577	0	869	825	890	2072	
2578	0	870	825	891	2075	
2579	0	869	825	891	2077	
2580	0	869	826	890	2079	
2581	0	869	826	892	2081	
2582	0	869	825	891	2083	
2583	0	870	826	890	2085	
2584	0	870	826	890	2088	
2585	0	869	826	891	2090	
2586	0	869	826	891	2092	
2587	0	869	825	890	2094	
2588	0	869	825	890	2096	
2589	0	869	825	890	2098	
2590	0	868	825	891	2101	
2591	0	868	826	891	2102	
2592	0	869	826	892	2106	
2593	0	869	826	890	2105	
2594	0	870	826	891	2106	
2595	0	871	825	891	2108	
2596	0	870	826	892	2111	
2597	0	870	825	890	2110	
2598	0	871	826	892	2113	
2599	0	871	826	891	2111	
2600	0	871	825	890	2113	
2601	0	870	826	891	2116	
2602	0	870	825	890	2115	
2603	0	871	826	891	2119	
2604	0	871	827	891	2119	
2605	0	871	825	891	2120	
2606	0	871	826	891	2122	
2607	0	870	826	890	2121	
2608	0	871	826	891	2124	
2609	0	871	826	890	2122	
2610	0	870	826	890	2121	
2611	0	869	826	891	2122	
2612	0	871	825	890	2121	
2613	0	870	826	891	2120	
2614	0	869	825	891	2119	
2615	0	869	825	891	2120	
2616	0	869	825	891	2119	
2617	0	870	825	890	2120	
2618	0	870	825	891	2119	
2619	0	870	826	891	2119	
2620	0	870	826	892	2119	
2621	0	870	826	891	2118	
2622	0	870	825	890	2120	
2623	0	870	825	890	2119	
2624	0	870	827	890	2120	
2625	0	869	826	891	2121	
2626	0	869	826	891	2120	
2627	0	869	825	890	2120	
2628	0	870	825	891	2119	
2629	0	870	826	891	2118	
2630	0	867	826	891	2118	
2631	0	869	826	891	2116	
2632	0	870	826	890	2117	
2633	0	870	825	890	2116	
2634	0	870	827	890	2116	
2635	0	870	826	891	2115	
2636	0	869	826	891	2112	
2637	0	870	826	890	2112	
2638	0	870	826	891	2114	
2639	0	871	826	891	2116	
2640	0	869	826	891	2117	
2641	0	870	826	891	2116	
2642	0	870	826	889	2119	
2643	0	870	825	890	2119	
2644	0	870	827	890	2119	
2645	0	871	826	891	2119	
2646	0	869	826	891	2118	
2647	0	869	825	890	2119	
2648	0	869	826	890	2118	
2649	0	869	827	890	2117	
2650	0	868	826	891	2117	
2651	0	870	825	891	2113	
2652	0	869	826	890	2113	
2653	0	869	826	890	2111	
2654	0	869	826	890	2111	
2655	0	870	826	891	2109	
2656	0	868	826	891	2108	
2657	0	870	826	890	2109	
2658	0	870	826	890	2108	
2659	0	868	825	891	2109	
2660	0	870	826	891	2107	
2661	0	868	826	891	2108	
2662	0	869	825	890	2107	
2663	0	869	826	891	2107	
2664	0	869	826	890	2108	
2665	0	871	825	890	2107	
2666	0	870	826	892	2108	
2667	0	869	825	890	2105	
2668	0	869	825	891	2103	
2669	0	870	826	891	2104	
2670	0	871	826	892	2104	
2671	0	870	826	891	2100	
2672	0	870	825	890	2099	
2673	0	869	826	891	2099	
2674	0	869	826	891	2097	
2675	0	871	825	891	2097	
2676	0	870	826	891	2095	
2677	0	869	826	890	2095	
2678	0	870	826	891	2094	
2679	0	870	826	891	2092	
2680	0	870	826	891	2091	
2681	0	870	827	891	2090	
2682	0	870	826	889	2091	
2683	0	870	826	890	2091	
2684	0	870	826	890	2092	
2685	0	870	826	891	2093	
2686	0	870	826	891	2092	
2687	0	870	826	890	2093	
2688	0	869	826	891	2091	
2689	0	870	826	890	2089	
2690	0	870	825	891	2088	
2691	0	868	826	892	2085	
2692	0	869	825	891	2084	
2693	0	869	825	891	2083	
2694	0	869	825	891	2083	
2695	0	871	826	891	2082	
2696	0	870	826	891	2082	
2697	0	870	826	890	2082	
2698	0	872	826	891	2082	
2699	0	872	825	890	2081	
2700	0	870	825	891	2080	
2701	0	870	826	891	2082	
2702	0	870	827	891	2082	
2703	0	868	826	891	2080	
2704	0	868	826	891	2082	
2705	0	869	826	891	2082	
2706	0	869	826	891	2082	
2707	0	869	825	892	2082	
2708	0	870	825	891	2081	
2709	0	870	825	891	2077	
2710	0	870	824	891	2078	
2711	0	869	826	891	2079	
2712	0	869	825	890	2077	
2713	0	868	826	891	2078	
2714	0	870	827	890	2074	
2715	0	870	825	891	2074	
2716	0	870	826	891	2074	
2717	0	869	826	889	2074	
2718	0	870	826	891	2074	
2719	0	870	826	891	2077	
2720	0	871	826	891	2078	
2721	0	871	826	891	2075	
2722	0	870	825	890	2074	
2723	0	870	825	890	2073	
2724	0	870	825	891	2075	
2725	0	870	826	891	2074	
2726	0	870	826	891	2073	
2727	0	871	826	891	2074	
2728	0	869	825	890	2071	
2729	0	869	826	890	2073	
2730	0	869	826	891	2073	
2731	0	869	826	890	2072	
2732	0	869	825	890	2072	
2733	0	870	826	891	2073	
2734	0	871	826	891	2072	
2735	0	870	825	890	2071	
2736	0	870	826	891	2072	
2737	0	869	826	890	2070	
2738	0	868	826	892	2070	
2739	0	870	824	892	2069	
2740	0	870	825	892	2067	
2741	0	869	826	891	2069	
2742	0	871	826	891	2070	
2743	0	870	825	890	2069	
2744	0	869	825	891	2072	
2745	0	870	825	892	2073	
2746	0	870	825	891	2073	
2747	0	870	826	891	2074	
2748	0	870	825	891	2072	
2749	0	871	826	890	2071	
2750	0	871	826	891	2071	
2751	0	871	826	892	2073	
2752	0	870	825	890	2070	
2753	0	869	825	891	2069	
2754	0	870	825	891	2070	
2755	0	870	826	891	2070	
2756	0	870	826	891	2069	
2757	0	870	826	892	2070	
2758	0	869	825	891	2069	
2759	0	869	826	891	2072	
2760	0	869	827	891	2072	
2761	0	869	826	891	2072	
2762	0	870	826	891	2074	
2763	0	869	826	890	2072	
2764	0	870	825	891	2074	
2765	0	870	826	891	2074	
2766	0	869	826	891	2073	
2767	0	870	825	889	2073	
2768	0	869	826	891	2074	
2769	0	870	826	890	2072	
2770	0	870	825	891	2071	
2771	0	870	826	891	2071	
2772	0	870	826	891	2071	
2773	0	869	826	891	2068	
2774	0	868	826	891	2069	
2775	0	870	826	892	2070	
2776	0	870	826	891	2068	
2777	0	870	826	890	2066	
2778	0	870	826	890	2067	
2779	0	869	826	891	2070	
2780	0	870	826	891	2072	
2781	0	868	826	891	2070	
2782	0	869	825	890	2072	
2783	0	868	826	890	2073	
2784	0	868	825	891	2075	
2785	0	869	826	891	2076	
2786	0	870	826	891	2075	
2787	0	870	826	891	2076	
2788	0	869	826	890	2074	
2789	0	869	826	891	2074	
2790	0	871	826	891	2074	
2791	0	869	826	891	2073	
2792	0	870	826	891	2074	
2793	0	869	825	890	2071	
2794	0	870	826	890	2072	
2795	0	869	826	890	2072	
2796	0	869	826	890	2073	
2797	0	870	826	891	2074	
2798	0	869	825	890	2073	
2799	0	869	826	890	2074	
2800	0	870	826	891	2076	
2801	0	869	825	890	2075	
2802	0	870	826	891	2076	
2803	0	869	825	891	2074	
2804	0	869	825	891	2076	
2805	0	870	826	891	2078	
2806	0	869	825	891	2077	
2807	0	870	826	892	2077	
2808	0	869	825	891	2074	
2809	0	870	825	891	2074	
2810	0	871	826	892	2074	
2811	0	870	826	891	2073	
2812	0	870	826	892	2074	
2813	0	870	826	891	2072	
2814	0	871	825	891	2073	
2815	0	870	826	892	2074	
2816	0	870	826	892	2076	
2817	0	870	825	891	2075	
2818	0	869	826	892	2077	
2819	0	870	827	891	2076	
2820	0	869	825	892	2076	
2821	0	870	826	891	2078	
2822	0	868	825	890	2076	
2823	0	868	826	891	2077	
2824	0	869	825	891	2075	
2825	0	870	824	891	2076	
2826	0	869	826	891	2077	
2827	0	869	825	890	2078	
2828	0	869	825	890	2077	
2829	0	870	825	891	2076	
2830	0	871	826	890	2077	
2831	0	869	826	891	2078	
2832	0	869	825	890	2080	
2833	0	870	826	890	2079	
2834	0	870	825	890	2079	
2835	0	870	825	890	2080	
2836	0	870	826	890	2080	
2837	0	869	826	890	2079	
2838	0	868	826	890	2078	
2839	0	869	826	890	2079	
2840	0	870	826	890	2080	
2841	0	869	826	891	2080	
2842	0	870	825	890	2079	
2843	0	869	826	890	2078	
2844	0	870	825	890	2077	
2845	0	870	825	891	2077	
2846	0	870	825	891	2077	
2847	0	870	825	891	2076	
2848	0	869	825	891	2074	
2849	0	870	826	891	2074	
2850	0	871	826	891	2074	
2851	0	870	826	891	2073	
2852	0	870	825	891	2071	
2853	0	869	825	891	2070	
2854	0	870	826	890	2071	
2855	0	871	825	890	2073	
2856	0	870	825	891	2074	
2857	0	870	825	891	2075	
2858	0	869	825	890	2076	
2859	0	871	825	890	2078	
2860	0	872	825	890	2078	
2861	0	870	826	891	2078	
2862	0	869	826	890	2075	
2863	0	870	826	892	2074	
2864	0	871	825	891	2074	
2865	0	871	825	890	2076	
2866	0	870	825	891	2077	
2867	0	870	825	890	2076	
2868	0	870	825	891	2076	
2869	0	871	825	891	2076	
2870	0	871	825	891	2076	
2871	0	871	826	892	2076	
2872	0	870	825	891	2074	
2873	0	871	826	890	2073	
2874	0	871	826	890	2072	
2875	0	871	826	890	2072	
2876	0	870	825	891	2073	
2877	0	870	825	891	2072	
2878	0	870	825	891	2071	
2879	0	870	826	891	2073	
2880	0	870	826	891	2076	
2881	0	870	825	891	2076	
2882	0	869	826	890	2076	
2883	0	868	826	892	2078	
2884	0	870	825	890	2074	
2885	0	869	826	891	2076	
2886	0	869	826	891	2077	
2887	0	870	826	892	2078	
2888	0	870	825	891	2075	
2889	0	870	826	891	2075	
2890	0	871	826	891	2075	
2891	0	870	825	892	2073	
2892	0	870	826	892	2073	
2893	0	870	826	891	2070	
2894	0	870	826	890	2070	
2895	0	870	826	891	2069	
2896	0	870	825	891	2070	
2897	0	869	825	891	2069	
2898	0	869	825	891	2068	
2899	0	869	826	891	2067	
2900	0	869	826	891	2068	
2901	0	868	825	891	2068	
2902	0	870	826	891	2070	
2903	0	869	825	891	2070	
2904	0	870	825	891	2072	
2905	0	870	826	891	2075	
2906	0	870	825	891	2074	
2907	0	869	825	891	2073	
2908	0	868	825	892	2074	
2909	0	870	827	891	2072	
2910	0	870	826	890	2073	
2911	0	870	826	891	2073	
2912	0	869	825	890	2070	
2913	0	869	825	891	2068	
2914	0	869	826	891	2067	
2915	0	870	826	891	2069	
2916	0	869	825	891	2068	
2917	0	869	825	891	2067	
2918	0	868	827	891	2069	
2919	0	869	826	891	2068	
2920	0	869	826	890	2069	
2921	0	869	826	891	2070	
2922	0	869	825	891	2069	
2923	0	868	826	891	2070	
2924	0	869	827	890	2068	
2925	0	869	825	891	2069	
2926	0	870	826	891	2071	
2927	0	869	826	891	2069	
2928	0	869	826	891	2070	
2929	0	869	826	891	2068	
2930	0	869	825	891	2068	
2931	0	869	826	892	2069	
2932	0	869	825	891	2066	
2933	0	869	825	891	2065	
2934	0	868	826	891	2064	
2935	0	870	826	891	2066	
2936	0	870	826	891	2067	
2937	0	870	825	890	2066	
2938	0	869	826	891	2067	
2939	0	869	825	893	2065	
2940	0	869	825	891	2065	
2941	0	869	826	891	2066	
2942	0	868	825	891	2066	
2943	0	868	826	891	2067	
2944	0	870	825	893	2068	
2945	0	871	825	891	2068	
2946	0	869	824	891	2070	
2947	0	871	826	892	2071	
2948	0	869	826	891	2069	
2949	0	869	825	891	2069	
2950	0	871	825	891	2068	
2951	0	869	825	891	2068	
2952	0	869	825	891	2067	
2953	0	869	825	891	2066	
2954	0	869	825	891	2065	
2955	0	871	826	891	2064	
2956	0	869	825	891	2065	
2957	0	870	826	891	2066	
2958	0	870	826	890	2065	
2959	0	869	826	890	2066	
2960	0	871	826	890	2067	
2961	0	869	825	891	2068	
2962	0	870	826	890	2067	
2963	0	870	826	890	2066	
2964	0	870	825	891	2067	
2965	0	871	824	891	2069	
2966	0	868	825	891	2068	
2967	0	869	825	891	2066	
2968	0	869	826	890	2065	
2969	0	870	826	890	2064	
2970	0	870	826	890	2065	
2971	0	869	825	891	2065	
2972	0	870	825	890	2065	
2973	0	870	826	890	2065	
2974	0	870	826	890	2068	
2975	0	871	828	890	2069	
2976	0	871	826	891	2072	
2977	0	869	825	890	2071	
2978	0	870	825	890	2070	
2979	0	869	825	890	2071	
2980	0	870	826	891	2072	
2981	0	869	825	891	2071	
2982	0	869	826	891	2071	
2983	0	870	826	890	2070	
2984	0	870	826	890	2071	
2985	0	870	826	891	2072	
2986	0	868	824	891	2072	
2987	0	869	824	891	2070	
2988	0	869	826	891	2072	
2989	0	870	827	891	2069	
2990	0	869	826	891	2068	
2991	0	870	826	891	2069	
2992	0	869	825	890	2066	
2993	0	870	826	891	2069	
2994	0	870	826	890	2067	
2995	0	870	827	890	2066	
2996	0	870	826	891	2067	
2997	0	869	825	891	2065	
2998	0	870	825	890	2064	
2999	0	870	825	890	2065	
3000	0	871	825	891	2066	
3001	0	869	825	891	2065	
3002	0	870	826	891	2066	
3003	0	869	825	890	2064	
3004	0	869	825	890	2065	
3005	0	870	826	891	2067	
3006	0	868	825	891	2067	
3007	0	870	826	891	2069	
3008	0	870	825	891	2066	
3009	0	870	825	891	2066	
3010	0	871	826	892	2067	
3011	0	871	824	891	2066	
3012	0	871	826	891	2066	
3013	0	869	826	891	2065	
3014	0	870	826	890	2065	
3015	0	870	826	891	2063	
3016	0	870	826	891	2064	
3017	0	869	826	890	2061	
3018	0	870	826	891	2063	
3019	0	870	825	891	2063	
3020	0	870	827	890	2064	
3021	0	870	826	891	2065	
3022	0	869	825	890	2063	
3023	0	869	826	892	2063	
3024	0	870	826	890	2061	
3025	0	870	825	890	2059	
3026	0	869	825	891	2057	
3027	0	869	826	892	2053	
3028	0	869	825	891	2046	
3029	0	869	826	890	2043	
3030	0	870	826	891	2040	
3031	0	868	826	891	2038	
3032	0	869	826	891	2036	
3033	0	868	826	891	2035	
3034	0	869	825	890	2034	
3035	0	870	827	891	2033	
3036	0	871	826	891	2034	
3037	0	869	826	890	2033	
3038	0	870	827	891	2036	
3039	0	870	827	890	2033	
3040	0	870	826	890	2033	
3041	0	868	825	891	2034	
3042	0	870	826	891	2034	
3043	0	869	825	890	2032	
3044	0	870	826	890	2032	
3045	0	870	826	891	2033	
3046	0	869	825	891	2032	
3047	0	870	827	892	2033	
3048	0	869	826	891	2029	
3049	0	869	825	891	2028	
3050	0	870	826	892	2029	
3051	0	869	825	891	2026	
3052	0	870	826	890	2022	
3053	0	869	825	890	2017	
3054	0	870	826	890	2015	
3055	0	870	826	891	2014	
3056	0	869	825	891	2012	
3057	0	868	826	890	2010	
3058	0	868	826	892	2014	
3059	0	869	826	892	2015	
3060	0	869	825	891	2019	
3061	0	869	826	891	2023	
3062	0	869	825	890	2022	
3063	0	869	826	890	2024	
3064	0	870	825	890	2023	
3065	0	870	826	890	2023	
3066	0	870	826	890	2024	
3067	0	869	825	890	2024	
3068	0	869	825	890	2025	
3069	0	870	826	890	2025	
3070	0	870	826	891	2025	
3071	0	870	826	891	2026	
3072	0	869	825	890	2024	
3073	0	869	825	891	2024	
3074	0	869	825	891	2026	
3075	0	870	826	891	2029	
3076	0	869	825	891	2032	
3077	0	870	826	891	2036	
3078	0	869	826	890	2039	
3079	0	870	825	891	2043	
3080	0	870	826	891	2047	
3081	0	869	825	890	2048	
3082	0	870	826	891	2051	
3083	0	868	825	891	2051	
3084	0	869	826	891	2052	
3085	0	870	826	891	2052	
3086	0	869	826	891	2051	
3087	0	871	826	891	2055	
3088	0	871	825	891	2055	
3089	0	870	825	891	2057	
3090	0	871	826	892	2059	
3091	0	869	824	892	2061	
3092	0	871	826	891	2065	
3093	0	870	825	890	2067	
3094	0	869	825	891	2072	
3095	0	871	826	891	2076	
3096	0	870	825	891	2078	
3097	0	870	826	891	2081	
3098	0	870	825	891	2082	
3099	0	870	826	890	2085	
3100	0	870	826	891	2088	
3101	0	869	826	891	2089	
3102	0	871	826	891	2092	
3103	0	869	826	890	2093	
3104	0	870	825	890	2096	
3105	0	870	826	890	2098	
3106	0	871	826	891	2101	
3107	0	870	826	891	2101	
3108	0	870	826	892	2103	
3109	0	870	826	893	2101	
3110	0	870	827	891	2102	
3111	0	870	826	891	2103	
3112	0	870	825	890	2099	
3113	0	870	826	892	2099	
3114	0	870	826	892	2096	
3115	0	870	826	891	2095	
3116	0	868	826	891	2095	
3117	0	869	826	890	2095	
3118	0	870	825	891	2097	
3119	0	870	826	891	2094	
3120	0	870	826	890	2095	
3121	0	869	825	891	2097	
3122	0	869	825	890	2097	
3123	0	869	825	890	2097	
3124	0	869	825	890	2096	
3125	0	870	826	891	2096	
3126	0	870	826	891	2095	
3127	0	870	825	891	2092	
3128	0	870	825	891	2092	
3129	0	871	828	891	2091	
3130	0	870	826	891	2091	
3131	0	870	826	891	2092	
3132	0	870	825	890	2090	
3133	0	871	826	891	2093	
3134	0	871	826	890	2090	
3135	0	870	826	891	2091	
3136	0	869	826	891	2090	
3137	0	870	826	890	2088	
3138	0	870	826	890	2087	
3139	0	870	826	890	2087	
3140	0	870	826	890	2087	
3141	0	869	826	891	2087	
3142	0	870	826	890	2083	
3143	0	870	826	890	2082	
3144	0	870	826	890	2080	
3145	0	870	826	890	2075	
3146	0	869	826	891	2071	
3147	0	869	825	891	2065	
3148	0	869	825	891	2060	
3149	0	869	826	891	2055	
3150	0	870	825	891	2051	
3151	0	869	825	891	2046	
3152	0	870	825	890	2038	
3153	0	869	826	890	2029	
3154	0	870	826	890	2018	
3155	0	870	826	891	2005	
3156	0	870	826	891	1987	
3157	0	869	825	890	1964	
3158	0	869	825	890	1942	
3159	0	868	826	890	1916	
3160	0	869	825	891	1889	
3161	0	868	826	891	1863	
3162	0	869	825	890	1840	
3163	0	869	825	891	1823	
3164	0	869	826	890	1811	
3165	0	870	826	891	1810	
3166	0	869	826	891	1814	
3167	0	869	825	891	1825	
3168	0	870	826	891	1839	
3169	0	870	827	890	1855	
3170	0	869	827	891	1871	
3171	0	869	826	892	1882	
3172	0	868	826	891	1881	
3173	0	869	826	890	1880	
3174	0	869	826	890	1879	
3175	0	869	826	891	1883	
3176	0	870	827	891	1895	
3177	0	869	826	890	1909	
3178	0	869	826	891	1939	
3179	0	870	828	890	1972	
3180	0	870	826	891	2019	
3181	0	870	826	891	2078	
3182	0	870	826	891	2143	
3183	0	871	825	891	2206	
3184	0	869	825	890	2277	
3185	0	870	826	891	2350	
3186	0	869	826	891	2416	
3187	0	870	826	891	2471	
3188	0	869	825	891	2505	
3189	0	870	825	891	2523	
3190	0	871	826	892	2523	
3191	0	870	826	891	2509	
3192	0	871	826	891	2489	
3193	0	872	826	890	2460	
3194	0	869	826	890	2431	
3195	0	870	826	890	2401	
3196	0	871	826	891	2371	
3197	0	869	826	890	2339	
3198	0	870	825	891	2313	
3199	0	870	826	890	2287	
3200	0	869	826	890	2263	
3201	0	868	826	891	2240	
3202	0	870	826	890	2215	
3203	0	870	825	890	2192	
3204	0	869	826	890	2169	
3205	0	870	825	890	2146	
3206	0	869	826	890	2126	
3207	0	869	826	890	2105	
3208	0	869	825	891	2088	
3209	0	869	825	891	2075	
3210	0	870	827	891	2066	
3211	0	869	825	891	2060	
3212	0	870	826	890	2052	
3213	0	870	825	890	2048	
3214	0	869	826	890	2046	
3215	0	869	827	890	2044	
3216	0	869	826	891	2042	
3217	0	869	826	890	2040	
3218	0	869	826	890	2040	
3219	0	869	826	891	2040	
3220	0	869	827	891	2039	
3221	0	869	825	891	2038	
3222	0	869	825	890	2037	
3223	0	869	825	891	2037	
3224	0	869	826	890	2036	
3225	0	870	827	890	2037	
3226	0	869	826	891	2036	
3227	0	870	826	891	2036	
3228	0	869	826	890	2033	
3229	0	868	825	891	2032	
3230	0	870	826	890	2031	
3231	0	870	826	891	2032	
3232	0	869	825	891	2030	
3233	0	870	825	891	2033	
3234	0	871	826	890	2031	
3235	0	870	825	891	2032	
3236	0	870	826	891	2032	
3237	0	870	825	890	2030	
3238	0	869	826	890	2030	
3239	0	868	826	891	2029	
3240	0	870	827	891	2028	
3241	0	869	826	890	2029	
3242	0	869	826	891	2029	
3243	0	870	826	890	2026	
3244	0	870	825	890	2026	
3245	0	870	826	892	2030	
3246	0	869	826	891	2028	
3247	0	870	826	891	2029	
3248	0	871	825	890	2025	
3249	0	870	826	891	2025	
3250	0	870	825	890	2024	
3251	0	870	825	891	2023	
3252	0	869	825	890	2020	
3253	0	870	825	892	2019	
3254	0	870	825	891	2020	
3255	0	870	826	891	2020	
3256	0	870	826	891	2023	
3257	0	869	825	890	2020	
3258	0	870	825	890	2021	
3259	0	869	826	890	2022	
3260	0	870	827	891	2022	
3261	0	870	826	891	2023	
3262	0	870	826	891	2022	
3263	0	870	825	891	2019	
3264	0	869	826	891	2020	
3265	0	869	826	892	2020	
3266	0	868	825	892	2017	
3267	0	869	826	892	2018	
3268	0	868	825	891	2015	
3269	0	869	825	890	2015	
3270	0	870	826	891	2015	
3271	0	869	826	891	2014	
3272	0	871	826	891	2014	
3273	0	869	825	891	2013	
3274	0	870	826	891	2012	
3275	0	870	826	891	2011	
3276	0	870	825	891	2014	
3277	0	870	825	891	2012	
3278	0	869	825	891	2012	
3279	0	869	826	890	2011	
3280	0	869	827	890	2011	
3281	0	869	826	891	2012	
3282	0	869	826	890	2012	
3283	0	869	825	890	2012	
3284	0	868	826	890	2012	
3285	0	869	827	891	2012	
3286	0	869	826	891	2015	
3287	0	869	826	891	2014	
3288	0	869	825	891	2014	
3289	0	869	826	891	2013	
3290	0	869	827	891	2012	
3291	0	869	826	891	2012	
3292	0	870	825	890	2009	
3293	0	869	826	890	2008	
3294	0	868	826	890	2007	
3295	0	869	826	890	2008	
3296	0	869	826	891	2009	
3297	0	869	825	890	2008	
3298	0	869	824	891	2010	
3299	0	871	826	891	2009	
3300	0	870	826	890	2008	
3301	0	870	826	891	2010	
3302	0	869	825	890	2007	
3303	0	870	826	890	2007	
3304	0	870	825	890	2007	
3305	0	870	826	891	2008	
3306	0	870	826	891	2007	
3307	0	871	826	891	2007	
3308	0	870	825	890	2005	
3309	0	869	827	890	2005	
3310	0	870	826	890	2006	
3311	0	871	827	891	2007	
3312	0	870	826	890	2004	
3313	0	870	825	890	2004	
3314	0	870	826	890	2004	
3315	0	870	826	891	2006	
3316	0	868	827	890	2006	
3317	0	870	827	891	2006	
3318	0	869	826	890	2003	
3319	0	869	826	890	2004	
3320	0	870	825	890	2004	
3321	0	871	826	891	2005	
3322	0	869	826	890	2004	
3323	0	869	825	891	2006	
3324	0	870	826	890	2007	
3325	0	869	826	889	2007	
3326	0	870	826	891	2009	
3327	0	869	826	890	2007	
3328	0	870	825	891	2008	
3329	0	871	827	891	2005	
3330	0	871	826	891	2007	
3331	0	871	826	891	2005	
3332	0	870	825	891	2002	
3333	0	870	824	891	2004	
3334	0	870	826	891	2003	
3335	0	869	825	889	2003	
3336	0	869	826	892	2004	
3337	0	869	826	891	2000	
3338	0	870	825	890	2000	
3339	0	870	825	890	1999	
3340	0	870	826	889	1999	
3341	0	871	827	891	1998	
3342	0	870	826	890	1996	
3343	0	869	825	891	1998	
3344	0	870	827	890	1996	
3345	0	870	826	890	1996	
3346	0	869	825	891	1997	
3347	0	870	826	891	1997	
3348	0	870	825	890	1995	
3349	0	870	826	891	1995	
3350	0	870	826	891	1995	
3351	0	869	826	891	1993	
3352	0	870	826	892	1994	
3353	0	871	825	890	1991	
3354	0	869	826	891	1988	
3355	0	870	826	890	1988	
3356	0	869	825	891	1988	
3357	0	868	825	891	1986	
3358	0	868	825	891	1986	
3359	0	869	825	890	1985	
3360	0	870	826	891	1985	
3361	0	870	825	891	1986	
3362	0	869	825	891	1986	
3363	0	869	826	891	1985	
3364	0	868	826	890	1984	
3365	0	870	826	890	1983	
3366	0	868	825	891	1983	
3367	0	868	825	890	1980	
3368	0	868	825	891	1978	
3369	0	868	825	890	1976	
3370	0	869	826	891	1974	
3371	0	870	825	891	1974	
3372	0	870	825	891	1971	
3373	0	869	826	890	1970	
3374	0	869	826	890	1969	
3375	0	870	826	891	1969	
3376	0	870	825	891	1970	
3377	0	869	826	891	1969	
3378	0	870	825	891	1969	
3379	0	870	827	890	1968	
3380	0	870	827	890	1968	
3381	0	869	825	891	1969	
3382	0	869	825	891	1967	
3383	0	869	826	891	1966	
3384	0	869	825	891	1967	
3385	0	869	826	891	1968	
3386	0	869	825	891	1967	
3387	0	869	825	891	1964	
3388	0	868	825	891	1965	
3389	0	870	827	891	1961	
3390	0	870	826	890	1961	
3391	0	870	826	891	1961	
3392	0	870	825	890	1957	
3393	0	869	826	891	1958	
3394	0	870	826	890	1955	
3395	0	869	825	890	1953	
3396	0	868	826	892	1953	
3397	0	868	825	890	1951	
3398	0	869	826	890	1948	
3399	0	868	826	891	1948	
3400	0	870	826	891	1949	
3401	0	869	825	891	1947	
3402	0	869	825	890	1945	
3403	0	868	826	891	1946	
3404	0	870	826	893	1945	
3405	0	869	826	890	1943	
3406	0	870	826	891	1943	
3407	0	870	826	890	1940	
3408	0	869	826	891	1942	
3409	0	870	826	891	1941	
3410	0	869	826	891	1939	
3411	0	869	826	891	1939	
3412	0	869	825	891	1936	
3413	0	869	825	891	1935	
3414	0	870	826	891	1933	
3415	0	870	826	891	1933	
3416	0	869	825	891	1931	
3417	0	870	826	891	1931	
3418	0	869	825	890	1928	
3419	0	868	826	890	1928	
3420	0	870	826	891	1929	
3421	0	868	826	890	1927	
3422	0	869	826	891	1927	
3423	0	870	825	890	1925	
3424	0	869	825	891	1926	
3425	0	870	826	891	1927	
3426	0	869	824	892	1926	
3427	0	869	825	891	1925	
3428	0	869	826	892	1926	
3429	0	870	826	890	1924	
3430	0	870	825	891	1922	
3431	0	869	824	891	1921	
3432	0	870	826	891	1921	
3433	0	871	825	890	1919	
3434	0	869	825	890	1919	
3435	0	869	826	890	1919	
3436	0	869	825	891	1919	
3437	0	869	826	890	1917	
3438	0	869	826	890	1917	
3439	0	868	826	891	1916	
3440	0	870	826	891	1918	
3441	0	869	825	890	1920	
3442	0	869	825	891	1920	
3443	0	869	825	891	1920	
3444	0	869	826	890	1920	
3445	0	870	826	890	1920	
3446	0	870	825	890	1921	
3447	0	870	826	890	1919	
3448	0	869	825	890	1919	
3449	0	869	826	891	1919	
3450	0	869	827	891	1918	
3451	0	869	826	890	1920	
3452	0	869	826	891	1919	
3453	0	869	826	890	1920	
3454	0	870	825	891	1919	
3455	0	870	826	890	1919	
3456	0	868	824	890	1921	
3457	0	869	826	891	1924	
3458	0	869	825	890	1924	
3459	0	869	826	891	1925	
3460	0	869	826	891	1927	
3461	0	870	826	892	1931	
3462	0	869	826	890	1930	
3463	0	869	826	891	1934	
3464	0	870	826	889	1934	
3465	0	870	825	890	1935	
3466	0	870	826	891	1938	
3467	0	868	825	890	1938	
3468	0	868	825	890	1941	
3469	0	869	826	890	1946	
3470	0	869	826	891	1951	
3471	0	869	825	891	1955	
3472	0	870	826	891	1960	
3473	0	869	826	890	1960	
3474	0	870	825	891	1964	
3475	0	870	826	891	1969	
3476	0	869	825	890	1972	
3477	0	869	826	892	1976	
3478	0	870	825	890	1979	
3479	0	870	825	891	1982	
3480	0	870	825	892	1987	
3481	0	869	824	890	1990	
3482	0	869	824	891	1993	
3483	0	869	825	892	1999	
3484	0	870	826	891	2001	
3485	0	870	826	891	2006	
3486	0	870	825	890	2010	
3487	0	870	824	891	2013	
3488	0	870	825	891	2017	
3489	0	869	825	890	2022	
3490	0	870	825	891	2027	
3491	0	870	825	891	2031	
3492	0	869	825	890	2034	
3493	0	869	825	891	2038	
3494	0	869	825	891	2041	
3495	0	870	826	891	2043	
3496	0	870	825	890	2047	
3497	0	869	825	891	2050	
3498	0	870	825	890	2054	
3499	0	870	825	891	2058	
3500	0	869	826	891	2062	
3501	0	868	826	891	2067	
3502	0	868	826	890	2071	
3503	0	869	826	890	2075	
3504	0	868	826	890	2079	
3505	0	869	826	890	2082	
3506	0	870	825	890	2086	
3507	0	870	826	891	2088	
3508	0	870	825	891	2090	
3509	0	869	825	890	2093	
3510	0	870	826	890	2096	
3511	0	869	826	890	2099	
3512	0	869	826	890	2100	
3513	0	868	826	890	2102	
3514	0	868	826	891	2104	
3515	0	868	826	891	2106	
3516	0	869	826	891	2110	
3517	0	869	825	890	2109	
3518	0	870	825	890	2111	
3519	0	869	824	891	2112	
3520	0	870	826	892	2113	
3521	0	870	826	891	2116	
3522	0	869	825	890	2115	
3523	0	868	825	891	2118	
3524	0	870	826	891	2119	
3525	0	869	826	890	2119	
3526	0	870	826	891	2122	
3527	0	869	825	890	2121	
3528	0	870	826	891	2122	
3529	0	870	825	891	2124	
3530	0	870	826	891	2126	
3531	0	869	825	890	2125	
3532	0	869	825	890	2123	
3533	0	869	826	891	2125	
3534	0	869	827	892	2123	
3535	0	870	826	891	2123	
3536	0	869	825	890	2124	
3537	0	870	826	891	2125	
3538	0	869	826	891	2123	
3539	0	869	825	891	2124	
3540	0	870	826	891	2126	
3541	0	870	825	890	2126	
3542	0	869	825	891	2126	
3543	0	869	825	892	2129	
3544	0	870	826	892	2130	
3545	0	869	826	891	2129	
3546	0	868	825	890	2131	
3547	0	870	826	892	2132	
3548	0	871	825	891	2130	
3549	0	868	826	890	2129	
3550	0	870	827	891	2131	
3551	0	869	825	890	2129	
3552	0	870	826	891	2130	
3553	0	868	826	890	2127	
3554	0	869	826	891	2127	
3555	0	870	826	891	2127	
3556	0	870	826	891	2126	
3557	0	869	825	891	2124	
3558	0	868	826	891	2124	
3559	0	869	826	891	2125	
3560	0	869	826	891	2125	
3561	0	869	826	891	2125	
3562	0	869	825	892	2122	
3563	0	870	826	892	2123	
3564	0	870	827	892	2120	
3565	0	870	826	891	2122	
3566	0	870	825	890	2123	
3567	0	871	826	891	2124	
3568	0	870	826	890	2120	
3569	0	869	826	891	2119	
3570	0	870	826	891	2120	
3571	0	869	825	890	2117	
3572	0	870	826	891	2117	
3573	0	871	825	891	2113	
3574	0	870	825	891	2112	
3575	0	870	825	891	2111	
3576	0	869	824	891	2112	
3577	0	869	825	892	2112	
3578	0	870	825	891	2110	
3579	0	869	826	891	2110	
3580	0	870	826	892	2112	
3581	0	869	825	891	2108	
3582	0	870	825	892	2108	
3583	0	871	824	891	2104	
3584	0	869	825	891	2105	
3585	0	870	826	891	2106	
3586	0	870	824	890	2105	
3587	0	870	825	892	2103	
3588	0	870	825	891	2102	
3589	0	870	826	891	2104	
3590	0	870	826	889	2104	
3591	0	869	825	891	2104	
3592	0	870	825	891	2102	
3593	0	870	825	891	2102	
3594	0	870	826	891	2101	
3595	0	869	826	889	2102	
3596	0	869	826	890	2101	
3597	0	870	826	891	2099	
3598	0	870	825	891	2100	
3599	0	869	826	890	2101	
3600	0	870	826	889	2101	
3601	0	869	825	890	2100	
3602	0	870	826	891	2099	
3603	0	871	825	891	2099	
3604	0	871	825	891	2098	
3605	0	870	826	889	2096	
3606	0	871	825	890	2096	
3607	0	869	825	890	2094	
3608	0	871	825	891	2093	
3609	0	870	825	891	2094	
3610	0	870	826	890	2092	
3611	0	869	825	890	2090	
3612	0	870	825	890	2088	
3613	0	871	825	890	2088	
3614	0	869	826	890	2087	
3615	0	870	826	891	2086	
3616	0	869	825	890	2085	
3617	0	870	826	891	2086	
3618	0	870	826	891	2084	
3619	0	869	826	890	2084	
3620	0	870	826	891	2087	
3621	0	869	826	890	2086	
3622	0	870	827	891	2088	
3623	0	867	826	890	2085	
3624	0	868	826	890	2086	
3625	0	869	826	891	2089	
3626	0	869	826	890	2087	
3627	0	869	826	892	2088	
3628	0	870	826	890	2085	
3629	0	869	826	891	2085	
3630	0	870	826	892	2086	
3631	0	871	825	892	2085	
3632	0	870	825	891	2083	
3633	0	869	825	891	2084	
3634	0	870	826	891	2083	
3635	0	870	826	891	2082	
3636	0	869	826	891	2083	
3637	0	868	826	890	2080	
3638	0	868	826	891	2083	
3639	0	869	826	891	2080	
3640	0	869	826	889	2079	
3641	0	869	826	890	2079	
3642	0	870	826	891	2081	
3643	0	869	826	890	2079	
3644	0	869	826	890	2080	
3645	0	871	826	891	2082	
3646	0	869	825	891	2079	
3647	0	870	826	891	2080	
3648	0	870	825	890	2077	
3649	0	869	825	890	2077	
3650	0	870	826	892	2078	
3651	0	870	826	890	2076	
3652	0	870	825	891	2074	
3653	0	871	825	891	2077	
3654	0	871	826	891	2076	
3655	0	870	826	891	2073	
3656	0	870	826	891	2075	
3657	0	869	826	890	2072	
3658	0	869	826	891	2076	
3659	0	870	826	891	2075	
3660	0	869	826	890	2077	
3661	0	869	825	890	2078	
3662	0	870	826	891	2080	
3663	0	870	825	890	2079	
3664	0	870	825	891	2080	
3665	0	870	826	891	2080	
3666	0	870	826	891	2081	
3667	0	869	826	890	2078	
3668	0	869	825	891	2076	
3669	0	868	825	889	2075	
3670	0	869	827	891	2075	
3671	0	868	826	890	2075	
3672	0	869	827	891	2075	
3673	0	868	825	890	2072	
3674	0	869	825	890	2072	
3675	0	870	826	891	2072	
3676	0	868	825	890	2072	
3677	0	870	826	891	2072	
3678	0	870	826	890	2072	
3679	0	869	826	890	2071	
3680	0	870	826	891	2072	
3681	0	869	825	890	2070	
3682	0	870	826	890	2071	
3683	0	869	825	890	2071	
3684	0	869	825	891	2071	
3685	0	869	826	891	2071	
3686	0	869	825	891	2072	
3687	0	870	826	891	2071	
3688	0	869	825	891	2069	
3689	0	868	825	891	2069	
3690	0	870	826	891	2072	
3691	0	869	825	890	2071	
3692	0	869	826	891	2071	
3693	0	870	827	890	2068	
3694	0	869	827	890	2068	
3695	0	869	826	891	2068	
3696	0	869	825	890	2066	
3697	0	870	826	891	2067	
3698	0	870	826	890	2067	
3699	0	868	826	889	2070	
3700	0	870	827	890	2072	
3701	0	868	825	889	2071	
3702	0	869	826	890	2071	
3703	0	869	825	890	2069	
3704	0	869	825	890	2069	
3705	0	870	826	891	2070	
3706	0	869	826	890	2072	
3707	0	870	828	890	2074	
3708	0	869	825	892	2076	
3709	0	869	825	891	2075	
3710	0	869	826	891	2076	
3711	0	869	825	891	2077	
3712	0	869	826	890	2074	
3713	0	870	826	891	2073	
3714	0	870	825	891	2072	
3715	0	871	826	891	2072	
3716	0	869	826	890	2073	
3717	0	869	825	891	2071	
3718	0	869	826	891	2071	
3719	0	870	825	890	2072	
3720	0	869	825	890	2073	
3721	0	870	826	890	2074	
3722	0	870	826	890	2073	
3723	0	870	825	890	2075	
3724	0	869	825	891	2075	
3725	0	869	826	891	2077	
3726	0	869	825	891	2079	
3727	0	870	826	891	2077	
3728	0	869	825	891	2078	
3729	0	870	825	890	2078	
3730	0	869	826	890	2077	
3731	0	869	825	891	2078	
3732	0	869	826	890	2076	
3733	0	869	826	892	2078	
3734	0	869	827	892	2078	
3735	0	869	826	891	2077	
3736	0	869	825	891	2077	
3737	0	869	826	891	2076	
3738	0	870	825	891	2076	
3739	0	869	824	891	2076	
3740	0	869	826	891	2076	
3741	0	869	825	890	2077	
3742	0	869	826	890	2075	
3743	0	869	826	890	2074	
3744	0	869	825	891	2074	
3745	0	869	826	890	2076	
3746	0	869	825	891	2077	
3747	0	869	825	891	2076	
3748	0	870	826	891	2076	
3749	0	869	825	892	2075	
3750	0	869	826	891	2076	
3751	0	870	825	891	2078	
3752	0	869	825	891	2077	
3753	0	869	825	891	2076	
3754	0	870	825	891	2075	
3755	0	869	826	891	2075	
3756	0	868	826	891	2075	
3757	0	868	825	890	2074	
3758	0	868	825	890	2077	
3759	0	870	826	891	2076	
3760	0	869	825	891	2074	
3761	0	869	826	891	2075	
3762	0	870	826	892	2076	
3763	0	869	826	891	2075	
3764	0	870	825	891	2076	
3765	0	870	826	892	2078	
3766	0	869	826	891	2079	
3767	0	869	826	890	2079	
3768	0	870	826	890	2079	
3769	0	869	825	891	2080	
3770	0	870	826	890	2080	
3771	0	869	826	891	2081	
3772	0	869	826	891	2079	
3773	0	870	825	890	2079	
3774	0	870	825	891	2078	
3775	0	870	825	892	2078	
3776	0	870	825	891	2077	
3777	0	869	825	891	2076	
3778	0	869	825	891	2076	
3779	0	869	825	891	2077	
3780	0	870	826	891	2078	
3781	0	869	826	891	2080	
3782	0	869	825	890	2079	
3783	0	869	825	890	2079	
3784	0	868	825	891	2078	
3785	0	869	826	892	2079	
3786	0	869	826	891	2080	
3787	0	869	826	891	2079	
3788	0	869	826	891	2079	
3789	0	869	825	892	2079	
3790	0	870	826	892	2079	
3791	0	870	825	892	2079	
3792	0	871	826	892	2080	
3793	0	869	826	891	2078	
3794	0	870	825	891	2077	
3795	0	871	826	891	2076	
3796	0	871	826	891	2078	
3797	0	869	825	891	2075	
3798	0	870	825	890	2078	
3799	0	871	825	891	2077	
3800	0	871	825	891	2075	
3801	0	871	826	891	2077	
3802	0	870	825	890	2075	
3803	0	870	825	890	2076	
3804	0	870	826	891	2074	
3805	0	869	825	891	2075	
3806	0	870	826	891	2077	
3807	0	870	825	890	2075	
3808	0	869	825	891	2075	
3809	0	870	825	891	2075	
3810	0	870	826	891	2074	
3811	0	870	826	891	2075	
3812	0	870	826	891	2073	
3813	0	870	826	891	2072	
3814	0	870	825	891	2072	
3815	0	869	826	891	2071	
3816	0	870	826	891	2073	
3817	0	870	826	891	2072	
3818	0	869	826	890	2074	
3819	0	869	826	893	2072	
3820	0	870	826	891	2072	
3821	0	870	826	891	2074	
3822	0	870	825	890	2072	
3823	0	870	825	890	2074	
3824	0	870	826	892	2075	
3825	0	870	825	891	2075	
3826	0	871	826	891	2077	
3827	0	870	825	891	2074	
3828	0	870	825	890	2073	
3829	0	870	826	891	2073	
3830	0	869	826	892	2070	
3831	0	870	826	891	2070	
3832	0	870	826	891	2070	
3833	0	870	826	891	2067	
3834	0	870	826	890	2067	
3835	0	870	826	891	2069	
3836	0	870	826	890	2069	
3837	0	870	826	891	2071	
3838	0	870	827	890	2069	
3839	0	869	826	891	2070	
3840	0	869	826	891	2070	
3841	0	869	826	891	2071	
3842	0	870	826	891	2072	
3843	0	870	827	890	2070	
3844	0	870	825	890	2071	
3845	0	870	826	891	2071	
3846	0	869	825	891	2071	
3847	0	871	826	891	2071	
3848	0	872	825	891	2070	
3849	0	870	826	890	2070	
3850	0	871	826	891	2071	
3851	0	870	825	891	2070	
3852	0	870	825	891	2069	
3853	0	870	825	890	2072	
3854	0	870	826	891	2072	
3855	0	869	826	891	2067	
3856	0	870	826	891	2068	
3857	0	869	826	891	2067	
3858	0	870	826	891	2068	
3859	0	870	825	891	2068	
3860	0	870	826	893	2067	
3861	0	870	825	891	2066	
3862	0	870	825	891	2065	
3863	0	869	825	891	2067	
3864	0	869	825	890	2069	
3865	0	869	826	892	2068	
3866	0	869	826	890	2068	
3867	0	869	826	890	2067	
3868	0	869	826	890	2067	
3869	0	870	826	891	2065	
3870	0	870	826	891	2064	
3871	0	870	826	891	2064	
3872	0	870	826	890	2063	
3873	0	870	826	890	2063	
3874	0	870	826	891	2063	
3875	0	869	826	891	2062	
3876	0	869	825	890	2063	
3877	0	869	826	890	2063	
3878	0	869	825	890	2064	
3879	0	870	826	891	2065	
3880	0	870	826	891	2065	
3881	0	870	826	891	2067	
3882	0	871	826	891	2068	
3883	0	871	828	891	2066	
3884	0	870	826	891	2066	
3885	0	870	826	891	2067	
3886	0	868	825	891	2066	
3887	0	869	826	892	2067	
3888	0	870	825	890	2063	
3889	0	869	826	891	2063	
3890	0	869	826	891	2063	
3891	0	869	825	891	2064	
3892	0	870	825	891	2064	
3893	0	870	826	891	2062	
3894	0	869	825	890	2062	
3895	0	870	826	891	2063	
3896	0	869	825	891	2063	
3897	0	869	826	892	2063	
3898	0	869	824	891	2062	
3899	0	868	826	890	2062	
3900	0	869	826	891	2062	
3901	0	869	826	891	2061	
3902	0	869	826	892	2062	
3903	0	871	826	891	2061	
3904	0	871	826	891	2062	
3905	0	871	826	892	2064	
3906	0	869	826	891	2063	
3907	0	869	826	891	2063	
3908	0	869	826	890	2062	
3909	0	868	826	891	2062	
3910	0	869	826	892	2062	
3911	0	869	826	890	2061	
3912	0	870	827	891	2062	
3913	0	870	826	890	2061	
3914	0	870	826	890	2059	
3915	0	870	826	891	2060	
3916	0	870	825	891	2058	
3917	0	870	826	892	2059	
3918	0	870	826	890	2058	
3919	0	869	825	889	2059	
3920	0	869	826	891	2062	
3921	0	869	825	890	2060	
3922	0	870	825	891	2063	
3923	0	869	826	890	2060	
3924	0	871	826	890	2060	
3925	0	871	826	891	2062	
3926	0	869	825	891	2060	
3927	0	869	825	892	2058	
3928	0	869	825	890	2059	
3929	0	869	826	893	2055	
3930	0	868	825	891	2056	
3931	0	869	826	891	2056	
3932	0	869	825	891	2054	
3933	0	869	825	891	2055	
3934	0	870	825	891	2055	
3935	0	870	826	891	2057	
3936	0	869	825	890	2055	
3937	0	869	825	891	2053	
3938	0	869	826	890	2055	
3939	0	871	826	890	2056	
3940	0	870	826	891	2057	
3941	0	869	825	891	2055	
3942	0	869	826	892	2057	
3943	0	871	825	890	2055	
3944	0	870	825	890	2056	
3945	0	870	826	891	2058	
3946	0	870	825	890	2057	
3947	0	869	826	891	2058	
3948	0	869	826	890	2054	
3949	0	870	826	890	2054	
3950	0	869	826	891	2057	
3951	0	868	825	890	2056	
3952	0	868	826	891	2057	
3953	0	869	826	890	2056	
3954	0	871	826	890	2055	
3955	0	869	825	891	2057	
3956	0	868	825	890	2055	
3957	0	869	825	892	2055	
3958	0	868	825	891	2054	
3959	0	871	825	891	2054	
3960	0	870	825	892	2056	
3961	0	869	825	890	2055	
3962	0	870	826	891	2057	
3963	0	870	827	890	2056	
3964	0	870	826	890	2058	
3965	0	870	826	891	2059	
3966	0	869	825	890	2056	
3967	0	870	826	891	2058	
3968	0	870	826	890	2056	
3969	0	867	826	891	2055	
3970	0	870	826	891	2053	
3971	0	870	825	889	2054	
3972	0	871	826	891	2056	
3973	0	870	826	891	2054	
3974	0	869	826	891	2054	
3975	0	869	826	891	2055	
3976	0	869	825	890	2054	
3977	0	869	825	890	2052	
3978	0	870	826	891	2053	
3979	0	867	826	891	2054	
3980	0	869	826	891	2055	
3981	0	870	825	890	2055	
3982	0	870	826	891	2057	
3983	0	871	827	890	2056	
3984	0	871	826	891	2057	
3985	0	871	826	891	2060	
3986	0	870	825	890	2057	
3987	0	869	826	892	2058	
3988	0	869	826	890	2055	
3989	0	871	825	891	2054	
3990	0	870	826	892	2053	
3991	0	869	825	891	2051	
3992	0	869	826	891	2050	
3993	0	870	826	890	2050	
3994	0	867	826	890	2051	
3995	0	868	826	891	2050	
3996	0	868	826	890	2048	
3997	0	868	824	891	2047	
3998	0	869	826	891	2047	
3999	0	867	826	891	2049	
4000	0	868	826	891	2049	
4001	0	868	826	890	2050	
4002	0	869	826	890	2050	
4003	0	870	826	891	2050	
4004	0	867	826	891	2049	
4005	0	868	825	892	2048	
4006	0	869	825	890	2050	
4007	0	870	825	891	2050	
4008	0	870	826	890	2050	
4009	0	868	826	891	2052	
4010	0	869	826	891	2049	
4011	0	870	826	890	2049	
4012	0	870	826	890	2048	
4013	0	869	827	890	2047	
4014	0	871	825	890	2046	
4015	0	869	826	891	2047	
4016	0	869	825	890	2046	
4017	0	870	826	891	2045	
4018	0	870	825	891	2047	
4019	0	870	826	891	2048	
4020	0	869	826	890	2047	
4021	0	870	826	891	2047	
4022	0	869	825	890	2046	
4023	0	870	826	890	2047	
4024	0	870	826	890	2046	
4025	0	870	825	891	2047	
4026	0	869	825	890	2047	
4027	0	869	825	890	2047	
4028	0	869	825	891	2047	
4029	0	870	825	892	2047	
4030	0	870	826	891	2049	
4031	0	870	825	890	2046	
4032	0	871	826	892	2048	
4033	0	870	825	891	2047	
4034	0	870	826	891	2046	
4035	0	869	826	892	2046	
4036	0	869	825	890	2044	
4037	0	869	825	890	2043	
4038	0	869	826	891	2044	
4039	0	870	826	891	2043	
4040	0	869	826	891	2043	
4041	0	869	825	890	2044	
4042	0	869	826	891	2047	
4043	0	870	826	889	2047	
4044	0	869	825	891	2048	
4045	0	868	825	891	2050	
4046	0	868	825	891	2050	
4047	0	870	826	891	2051	
4048	0	869	825	890	2049	
4049	0	869	825	891	2049	
4050	0	870	826	891	2050	
4051	0	869	825	890	2047	
4052	0	870	826	891	2048	
4053	0	871	825	890	2047	
4054	0	871	825	890	2047	
4055	0	870	826	891	2049	
4056	0	869	825	890	2047	
4057	0	871	827	891	2048	
4058	0	871	825	891	2048	
4059	0	870	825	891	2049	
4060	0	869	826	891	2051	
4061	0	870	826	891	2052	
4062	0	870	826	890	2051	
4063	0	870	826	890	2053	
4064	0	870	826	891	2053	
4065	0	869	825	891	2050	
4066	0	871	825	891	2050	
4067	0	869	824	891	2047	
4068	0	871	825	891	2049	
4069	0	871	826	892	2046	
4070	0	870	825	891	2044	
4071	0	869	825	890	2043	
4072	0	870	826	892	2042	
4073	0	870	825	891	2037	
4074	0	870	825	891	2034	
4075	0	869	827	891	2031	
4076	0	869	826	890	2025	
4077	0	869	825	891	2020	
4078	0	870	825	891	2018	
4079	0	870	825	891	2017	
4080	0	870	826	892	2016	
4081	0	869	825	891	2013	
4082	0	870	826	891	2014	
4083	0	872	826	890	2013	
4084	0	870	825	890	2014	
4085	0	870	826	892	2016	
4086	0	870	825	890	2016	
4087	0	869	825	891	2015	
4088	0	869	826	891	2017	
4089	0	871	826	891	2017	
4090	0	870	826	891	2015	
4091	0	871	826	891	2015	
4092	0	870	825	890	2011	
4093	0	870	825	891	2011	
4094	0	869	826	891	2010	
4095	0	869	826	891	2008	
4096	0	870	826	891	2007	
4097	0	870	826	890	2004	
4098	0	870	825	891	2006	
4099	0	871	826	891	2006	
4100	0	870	826	891	2003	
4101	0	870	826	891	2001	
4102	0	869	825	890	1997	
4103	0	869	825	890	1995	
4104	0	870	825	890	1993	
4105	0	869	826	891	1995	
4106	0	869	825	890	1995	
4107	0	869	826	891	1998	
4108	0	869	827	891	1998	
4109	0	870	826	892	2000	
4110	0	871	826	890	2001	
4111	0	870	826	890	1999	
4112	0	869	826	890	1998	
4113	0	869	825	890	1999	
4114	0	870	826	891	1998	
4115	0	869	826	890	1997	
4116	0	870	826	891	1998	
4117	0	868	826	890	1998	
4118	0	870	826	890	2001	
4119	0	871	826	890	2004	
4120	0	870	826	891	2007	
4121	0	869	825	890	2006	
4122	0	869	826	891	2009	
4123	0	870	825	891	2009	
4124	0	871	825	891	2011	
4125	0	871	827	891	2015	
4126	0	870	826	889	2016	
4127	0	868	827	891	2021	
4128	0	870	826	891	2020	
4129	0	869	825	893	2021	
4130	0	870	826	892	2024	
4131	0	869	825	891	2022	
4132	0	868	825	892	2022	
4133	0	870	825	891	2023	
4134	0	870	825	891	2025	
4135	0	870	826	892	2029	
4136	0	869	825	891	2032	
4137	0	870	825	891	2034	
4138	0	870	825	891	2038	
4139	0	871	825	890	2042	
4140	0	871	826	891	2045	
4141	0	871	826	892	2049	
4142	0	870	825	891	2053	
4143	0	870	825	891	2059	
4144	0	871	826	892	2061	
4145	0	870	825	891	2062	
4146	0	871	826	891	2064	
4147	0	870	825	891	2065	
4148	0	869	826	891	2068	
4149	0	870	826	891	2070	
4150	0	870	826	891	2072	
4151	0	869	825	889	2073	
4152	0	868	826	891	2075	
4153	0	869	826	892	2076	
4154	0	869	825	891	2077	
4155	0	870	826	891	2078	
4156	0	870	824	891	2078	
4157	0	869	825	892	2079	
4158	0	870	825	891	2077	
4159	0	871	825	891	2079	
4160	0	870	825	891	2078	
4161	0	869	826	890	2080	
4162	0	869	826	892	2080	
4163	0	870	826	892	2078	
4164	0	869	826	891	2077	
4165	0	869	826	892	2079	
4166	0	868	825	891	2078	
4167	0	868	826	891	2078	
4168	0	870	827	890	2075	
4169	0	869	824	891	2077	
4170	0	869	825	891	2079	
4171	0	870	826	891	2079	
4172	0	869	825	891	2076	
4173	0	869	825	891	2076	
4174	0	870	826	891	2076	
4175	0	870	825	891	2075	
4176	0	870	826	891	2075	
4177	0	869	825	891	2073	
4178	0	869	825	891	2076	
4179	0	870	826	891	2074	
4180	0	869	825	891	2073	
4181	0	870	826	891	2076	
4182	0	870	825	890	2075	
4183	0	869	826	891	2078	
4184	0	871	826	891	2079	
4185	0	870	826	891	2078	
4186	0	870	826	891	2079	
4187	0	870	824	890	2076	
4188	0	870	825	890	2076	
4189	0	870	826	891	2076	
4190	0	869	826	891	2073	
4191	0	869	825	890	2073	
4192	0	870	825	890	2069	
4193	0	870	825	891	2066	
4194	0	870	826	891	2061	
4195	0	869	825	891	2054	
4196	0	869	826	891	2049	
4197	0	869	826	890	2042	
4198	0	869	826	891	2039	
4199	0	870	826	892	2031	
4200	0	869	826	891	2025	
4201	0	870	826	892	2018	
4202	0	870	825	891	2007	
4203	0	870	826	891	1993	
4204	0	870	826	891	1974	
4205	0	870	826	891	1952	
4206	0	870	826	890	1924	
4207	0	869	826	891	1899	
4208	0	870	827	891	1868	
4209	0	869	824	891	1842	
4210	0	869	827	891	1821	
4211	0	868	826	891	1802	
4212	0	868	826	891	1792	
4213	0	870	828	891	1790	
4214	0	870	826	891	1798	
4215	0	870	827	891	1813	
4216	0	869	826	891	1824	
4217	0	868	826	893	1840	
4218	0	869	826	891	1860	
4219	0	869	825	892	1872	
4220	0	870	826	891	1875	
4221	0	869	825	890	1876	
4222	0	869	825	891	1878	
4223	0	870	826	890	1883	
4224	0	870	826	891	1895	
4225	0	870	826	891	1916	
4226	0	870	826	890	1944	
4227	0	870	827	891	1982	
4228	0	870	825	890	2029	
4229	0	871	825	890	2087	
4230	0	870	826	891	2148	
4231	0	870	826	890	2211	
4232	0	869	826	890	2277	
4233	0	870	826	891	2345	
4234	0	871	825	890	2413	
4235	0	869	826	891	2465	
4236	0	869	825	891	2499	
4237	0	869	825	890	2513	
4238	0	870	825	891	2512	
4239	0	871	826	890	2500	
4240	0	870	825	891	2481	
4241	0	869	826	891	2454	
4242	0	870	825	890	2423	
4243	0	869	826	891	2394	
4244	0	871	825	890	2364	
4245	0	870	827	891	2334	
4246	0	870	825	890	2305	
4247	0	870	825	891	2277	
4248	0	870	826	890	2254	
4249	0	871	825	890	2231	
4250	0	870	826	890	2207	
4251	0	868	826	890	2183	
4252	0	868	825	890	2158	
4253	0	869	826	890	2135	
4254	0	869	826	891	2114	
4255	0	869	827	891	2094	
4256	0	868	826	890	2078	
4257	0	868	826	890	2063	
4258	0	869	826	891	2054	
4259	0	870	826	892	2049	
4260	0	869	826	891	2044	
4261	0	870	826	891	2040	
4262	0	870	825	890	2037	
4263	0	870	826	890	2036	
4264	0	870	826	891	2035	
4265	0	870	825	890	2034	
4266	0	870	826	891	2036	
4267	0	869	825	890	2035	
4268	0	869	826	890	2035	
4269	0	870	826	892	2038	
4270	0	870	826	892	2038	
4271	0	869	826	891	2037	
4272	0	868	826	891	2038	
4273	0	869	826	890	2035	
4274	0	869	825	891	2034	
4275	0	869	826	891	2036	
4276	0	869	826	891	2035	
4277	0	868	826	891	2037	
4278	0	869	828	891	2034	
4279	0	868	826	890	2034	
4280	0	870	826	891	2035	
4281	0	869	825	890	2033	
4282	0	869	825	891	2033	
4283	0	870	825	890	2034	
4284	0	870	826	891	2033	
4285	0	870	825	890	2030	
4286	0	870	826	891	2031	
4287	0	869	825	891	2028	
4288	0	869	825	892	2028	
4289	0	869	826	891	2027	
4290	0	870	825	891	2027	
4291	0	869	825	890	2026	
4292	0	869	826	890	2024	
4293	0	871	825	890	2023	
4294	0	871	826	890	2023	
4295	0	870	825	891	2023	
4296	0	870	825	891	2021	
4297	0	870	825	891	2019	
4298	0	871	826	890	2018	
4299	0	870	826	890	2019	
4300	0	870	826	891	2019	
4301	0	869	826	890	2017	
4302	0	869	826	890	2016	
4303	0	869	826	890	2016	
4304	0	870	825	890	2016	
4305	0	869	825	891	2016	
4306	0	869	826	890	2016	
4307	0	869	826	890	2015	
4308	0	869	825	891	2015	
4309	0	870	825	890	2014	
4310	0	870	825	891	2013	
4311	0	870	825	891	2014	
4312	0	870	826	891	2015	
4313	0	871	825	890	2015	
4314	0	871	826	891	2015	
4315	0	871	826	891	2016	
4316	0	870	825	891	2015	
4317	0	870	825	891	2014	
4318	0	870	824	891	2015	
4319	0	869	825	891	2016	
4320	0	869	825	892	2019	
4321	0	868	825	891	2018	
4322	0	869	826	891	2018	
4323	0	871	825	891	2017	
4324	0	870	825	890	2016	
4325	0	870	826	891	2018	
4326	0	869	826	890	2017	
4327	0	869	825	890	2015	
4328	0	870	825	891	2014	
4329	0	870	826	891	2015	
4330	0	869	825	891	2013	
4331	0	871	826	891	2013	
4332	0	870	825	891	2010	
4333	0	871	825	891	2009	
4334	0	872	825	890	2008	
4335	0	870	825	891	2008	
4336	0	872	826	891	2010	
4337	0	870	825	890	2009	
4338	0	870	826	891	2011	
4339	0	870	826	891	2012	
4340	0	869	825	891	2011	
4341	0	870	826	891	2010	
4342	0	869	825	891	2006	
4343	0	869	825	891	2006	
4344	0	869	825	891	2008	
4345	0	869	825	891	2009	
4346	0	870	826	892	2010	
4347	0	870	825	891	2007	
4348	0	872	826	890	2005	
4349	0	871	824	891	2005	
4350	0	869	824	891	2005	
4351	0	871	825	892	2006	
4352	0	870	825	890	2004	
4353	0	870	825	891	2003	
4354	0	871	824	891	2003	
4355	0	868	825	891	2005	
4356	0	869	826	890	2006	
4357	0	869	826	892	2006	
4358	0	871	825	891	2004	
4359	0	870	827	891	2003	
4360	0	870	826	891	2004	
4361	0	869	826	890	2003	
4362	0	870	826	891	2003	
4363	0	870	826	891	2003	
4364	0	870	827	890	2004	
4365	0	871	826	891	2006	
4366	0	870	826	890	2004	
4367	0	870	826	893	2002	
4368	0	870	826	891	2002	
4369	0	870	824	891	2002	
4370	0	870	825	891	2001	
4371	0	870	826	890	2000	
4372	0	869	826	890	1998	
4373	0	870	826	889	1998	
4374	0	870	825	891	1997	
4375	0	869	826	891	1997	
4376	0	868	825	891	1994	
4377	0	868	826	891	1994	
4378	0	870	826	891	1994	
4379	0	870	825	891	1995	
4380	0	868	825	891	1997	
4381	0	869	825	891	1996	
4382	0	869	825	891	1996	
4383	0	869	826	891	1995	
4384	0	869	824	891	1997	
4385	0	869	825	891	1997	
4386	0	869	825	890	1998	
4387	0	870	825	890	1997	
4388	0	869	825	889	1996	
4389	0	870	824	891	1997	
4390	0	869	825	891	1996	
4391	0	869	825	890	1994	
4392	0	869	826	891	1993	
4393	0	870	825	891	1994	
4394	0	871	826	892	1995	
4395	0	870	825	891	1994	
4396	0	870	825	891	1992	
4397	0	869	826	891	1991	
4398	0	870	826	890	1991	
4399	0	871	824	892	1992	
4400	0	870	825	891	1990	
4401	0	870	826	890	1988	
4402	0	869	826	890	1987	
4403	0	869	826	890	1987	
4404	0	869	826	890	1988	
4405	0	868	826	891	1987	
4406	0	868	825	890	1987	
4407	0	868	825	891	1985	
4408	0	868	825	891	1984	
4409	0	869	825	891	1985	
4410	0	868	825	891	1984	
4411	0	869	825	891	1982	
4412	0	869	825	891	1981	
4413	0	869	825	890	1980	
4414	0	870	824	890	1981	
4415	0	869	825	891	1981	
4416	0	868	825	890	1979	
4417	0	869	825	890	1979	
4418	0	869	825	890	1980	
4419	0	869	826	891	1980	
4420	0	868	825	891	1980	
4421	0	868	825	890	1979	
4422	0	869	826	892	1980	
4423	0	870	826	892	1980	
4424	0	869	826	891	1979	
4425	0	870	826	892	1979	
4426	0	870	826	891	1979	
4427	0	868	826	891	1977	
4428	0	868	826	890	1976	
4429	0	869	827	891	1975	
4430	0	868	826	891	1973	
4431	0	869	826	891	1972	
4432	0	869	826	890	1969	
4433	0	869	826	890	1967	
4434	0	870	826	890	1967	
4435	0	868	825	890	1966	
4436	0	869	826	891	1965	
4437	0	868	826	890	1963	
4438	0	870	826	890	1964	
4439	0	870	827	891	1964	
4440	0	869	825	891	1963	
4441	0	871	827	891	1963	
4442	0	870	826	890	1961	
4443	0	870	826	890	1962	
4444	0	870	827	891	1963	
4445	0	869	825	891	1960	
4446	0	869	826	890	1958	
4447	0	870	826	891	1958	
4448	0	870	826	890	1954	
4449	0	870	826	891	1951	
4450	0	870	826	891	1951	
4451	0	869	825	890	1948	
4452	0	870	826	891	1949	
4453	0	870	826	891	1946	
4454	0	870	827	890	1946	
4455	0	870	826	891	1947	
4456	0	870	825	891	1945	
4457	0	870	825	890	1944	
4458	0	870	825	890	1943	
4459	0	869	826	890	1943	
4460	0	869	825	891	1943	
4461	0	870	827	891	1944	
4462	0	869	826	890	1943	
4463	0	870	826	890	1943	
4464	0	870	826	891	1944	
4465	0	869	825	891	1943	
4466	0	871	826	891	1943	
4467	0	870	825	890	1940	
4468	0	870	825	890	1940	
4469	0	871	826	891	1939	
4470	0	870	824	892	1937	
4471	0	870	825	891	1934	
4472	0	870	825	891	1932	
4473	0	870	825	891	1931	
4474	0	871	826	891	1930	
4475	0	870	825	890	1929	
4476	0	870	825	891	1927	
4477	0	870	825	891	1928	
4478	0	870	825	891	1927	
4479	0	870	826	890	1927	
4480	0	868	825	891	1928	
4481	0	869	825	891	1926	
4482	0	869	825	891	1925	
4483	0	870	825	891	1926	
4484	0	870	826	891	1925	
4485	0	869	825	890	1925	
4486	0	868	826	890	1923	
4487	0	869	825	891	1923	
4488	0	869	824	891	1924	
4489	0	869	825	890	1923	
4490	0	868	825	891	1922	
4491	0	869	826	891	1922	
4492	0	868	825	890	1921	
4493	0	869	825	890	1921	
4494	0	869	827	891	1920	
4495	0	868	826	891	1920	
4496	0	870	827	891	1921	
4497	0	868	826	890	1917	
4498	0	869	825	890	1919	
4499	0	870	826	890	1920	
4500	0	870	826	891	1922	
4501	0	869	825	890	1922	
4502	0	871	826	891	1925	
4503	0	870	827	890	1925	
4504	0	870	826	891	1926	
4505	0	871	826	891	1928	
4506	0	869	826	890	1926	
4507	0	870	826	891	1929	
4508	0	871	826	892	1927	
4509	0	870	826	891	1928	
4510	0	870	826	891	1930	
4511	0	871	826	891	1932	
4512	0	870	825	891	1932	
4513	0	870	826	891	1934	
4514	0	870	826	891	1935	
4515	0	869	825	891	1936	
4516	0	868	825	890	1936	
4517	0	869	825	890	1938	
4518	0	870	825	890	1939	
4519	0	869	826	890	1944	
4520	0	868	825	891	1948	
4521	0	869	825	890	1949	
4522	0	870	826	891	1954	
4523	0	870	826	893	1956	
4524	0	870	827	891	1961	
4525	0	870	826	892	1965	
4526	0	869	825	891	1966	
4527	0	869	825	891	1968	
4528	0	870	825	890	1972	
4529	0	870	826	891	1977	
4530	0	868	825	891	1980	
4531	0	869	825	891	1980	
4532	0	870	825	892	1986	
4533	0	870	826	893	1989	
4534	0	870	826	890	1993	
4535	0	870	826	891	1998	
4536	0	870	825	890	1999	
4537	0	870	827	891	2005	
4538	0	870	827	890	2005	
4539	0	870	826	890	2011	
4540	0	870	826	891	2017	
4541	0	869	826	890	2019	
4542	0	869	826	892	2026	
4543	0	870	827	891	2029	
4544	0	870	825	891	2032	
4545	0	870	826	891	2038	
4546	0	869	826	891	2040	
4547	0	869	826	892	2044	
4548	0	869	826	890	2049	
4549	0	870	826	891	2054	
4550	0	869	825	891	2057	
4551	0	870	825	890	2059	
4552	0	870	825	891	2062	
4553	0	870	826	890	2066	
4554	0	871	827	890	2070	
4555	0	870	826	891	2075	
4556	0	870	826	890	2077	
4557	0	870	826	891	2080	
4558	0	869	826	891	2083	
4559	0	870	825	891	2086	
4560	0	869	826	891	2090	
4561	0	869	825	891	2092	
4562	0	869	825	891	2095	
4563	0	869	825	891	2098	
4564	0	870	825	891	2100	
4565	0	869	824	891	2103	
4566	0	870	825	891	2104	
4567	0	870	825	891	2106	
4568	0	870	826	891	2107	
4569	0	871	825	890	2108	
4570	0	870	826	891	2109	
4571	0	870	825	891	2110	
4572	0	870	825	891	2111	
4573	0	870	826	890	2114	
4574	0	869	827	891	2115	
4575	0	868	826	891	2117	
4576	0	869	826	891	2119	
4577	0	869	825	890	2118	
4578	0	869	826	890	2119	
4579	0	870	827	890	2120	
4580	0	870	826	891	2122	
4581	0	869	826	891	2121	
4582	0	868	825	891	2122	
4583	0	868	825	891	2124	
4584	0	869	826	890	2126	
4585	0	869	826	891	2127	
4586	0	869	826	890	2126	
4587	0	869	826	890	2126	
4588	0	870	826	890	2126	
4589	0	870	826	890	2126	
4590	0	869	826	891	2125	
4591	0	870	825	890	2123	
4592	0	870	825	890	2123	
4593	0	870	826	890	2123	
4594	0	870	826	890	2123	
4595	0	869	826	891	2124	
4596	0	870	825	891	2123	
4597	0	868	825	891	2123	
4598	0	869	826	891	2123	
4599	0	870	826	891	2124	
4600	0	869	825	891	2124	
4601	0	870	825	891	2123	
4602	0	869	825	891	2123	
4603	0	868	826	891	2123	
4604	0	869	827	891	2123	
4605	0	869	826	891	2123	
4606	0	868	825	890	2122	
4607	0	869	826	890	2121	
4608	0	870	826	890	2121	
4609	0	870	826	891	2122	
4610	0	869	827	890	2119	
4611	0	869	825	890	2117	
4612	0	869	825	890	2116	
4613	0	869	825	891	2117	
4614	0	869	826	891	2118	
4615	0	869	827	891	2114	
4616	0	868	825	891	2114	
4617	0	869	825	891	2114	
4618	0	869	825	891	2115	
4619	0	870	826	891	2115	
4620	0	870	827	891	2113	
4621	0	869	825	891	2111	
4622	0	869	826	891	2110	
4623	0	869	825	891	2110	
4624	0	869	826	892	2111	
4625	0	869	827	891	2110	
4626	0	870	826	891	2110	
4627	0	870	825	891	2111	
4628	0	870	826	891	2109	
4629	0	870	826	890	2105	
4630	0	870	826	891	2106	
4631	0	871	826	891	2106	
4632	0	873	826	891	2103	
4633	0	870	826	891	2103	
